wavelength,x,y,z
0.0,2.072021484375,20.810302734375,-22.912353515625
0.0005,-3.052978515625,23.412841796875,-20.630126953125
0.001,-7.657470703125,24.814208984375,-17.467041015625
0.0015,-13.623291015625,26.335693359375,-13.182861328125
0.002,-17.026611328125,25.414794921875,-8.898681640625
0.0025,-20.670166015625,24.854248046875,-4.654541015625
0.003,-22.431884765625,22.451904296875,-0.570556640625
0.0035,-25.114501953125,20.089599609375,4.634521484375
0.004,-26.075439453125,16.205810546875,9.479248046875
0.0045,-25.995361328125,11.321044921875,14.404052734375
0.005,-26.035400390625,8.638427734375,17.166748046875
0.0055,-23.833251953125,3.553466796875,20.049560546875
0.006,-21.751220703125,-0.610595703125,22.091552734375
0.0065,-18.908447265625,-5.455322265625,24.093505859375
0.007,-14.704345703125,-11.381103515625,25.855224609375
0.0075,-9.539306640625,-15.304931640625,24.533935546875
0.008,-6.336181640625,-18.427978515625,24.493896484375
0.0085,-1.251220703125,-20.469970703125,21.490966796875
0.009,3.633544921875,-23.192626953125,19.529052734375
0.0095,8.518310546875,-24.313720703125,15.685302734375
0.01,13.963623046875,-25.354736328125,11.561279296875
0.0105,17.246826171875,-24.874267578125,7.917724609375
0.011,20.489990234375,-23.673095703125,3.433349609375
0.0115,22.291748046875,-21.470947265625,-0.650634765625
0.012,24.774169921875,-19.228759765625,-5.415283203125
0.0125,25.574951171875,-15.224853515625,-10.300048828125
0.013,25.134521484375,-10.540283203125,-14.584228515625
0.0135,25.334716796875,-8.097900390625,-17.306884765625
0.014,22.732177734375,-2.932861328125,-19.949462890625
0.0145,20.930419921875,1.431396484375,-22.431884765625
0.015,17.527099609375,6.396240234375,-23.993408203125
0.0155,13.483154296875,12.041748046875,-25.594970703125
0.016,8.798583984375,15.685302734375,-24.473876953125
0.0165,4.994873046875,18.648193359375,-23.713134765625
0.017,0.070068359375,20.730224609375,-20.950439453125
0.0175,-4.894775390625,23.693115234375,-19.108642578125
0.018,-10.059814453125,24.253662109375,-14.544189453125
0.0185,-14.864501953125,25.054443359375,-10.700439453125
0.019,-17.907470703125,24.734130859375,-7.377197265625
0.0195,-20.990478515625,23.012451171875,-2.532470703125
0.02,-22.912353515625,20.650146484375,1.871826171875
0.0205,-25.034423828125,17.967529296875,6.716552734375
0.021,-25.675048828125,13.723388671875,11.681396484375
0.0215,-24.994384765625,9.158935546875,15.605224609375
0.022,-24.874267578125,6.556396484375,18.127685546875
0.0225,-22.111572265625,1.191162109375,20.730224609375
0.023,-20.189697265625,-3.533447265625,23.492919921875
0.0235,-15.745361328125,-8.778564453125,24.213623046875
0.024,-11.981689453125,-13.823486328125,25.574951171875
0.0245,-7.417236328125,-17.226806640625,24.333740234375
0.025,-3.052978515625,-20.029541015625,22.772216796875
0.0255,1.951904296875,-21.991455078125,19.889404296875
0.026,7.277099609375,-24.914306640625,17.647216796875
0.0265,12.402099609375,-24.874267578125,12.562255859375
0.027,16.926513671875,-25.354736328125,8.678466796875
0.0275,19.569091796875,-24.634033203125,5.355224609375
0.028,22.652099609375,-22.431884765625,0.070068359375
0.0285,24.654052734375,-19.869384765625,-4.654541015625
0.029,26.015380859375,-16.426025390625,-9.499267578125
0.0295,26.415771484375,-12.422119140625,-14.063720703125
0.03,25.334716796875,-7.777587890625,-17.627197265625
0.0305,24.373779296875,-4.574462890625,-19.869384765625
0.031,21.490966796875,0.950927734375,-22.431884765625
0.0315,19.128662109375,6.156005859375,-25.314697265625
0.032,13.803466796875,11.361083984375,-25.154541015625
0.0325,10.280029296875,15.845458984375,-26.195556640625
0.033,5.635498046875,18.728271484375,-24.473876953125
0.0335,0.630615234375,21.531005859375,-22.311767578125
0.034,-4.214111328125,23.372802734375,-19.388916015625
0.0345,-9.939697265625,25.935302734375,-16.305908203125
0.035,-14.424072265625,25.494873046875,-11.501220703125
0.0355,-18.628173828125,25.454833984375,-7.297119140625
0.036,-20.750244140625,24.173583984375,-4.013916015625
0.0365,-23.593017578125,21.731201171875,1.431396484375
0.037,-25.554931640625,18.808349609375,6.356201171875
0.0375,-25.955322265625,14.283935546875,11.321044921875
0.038,-26.435791015625,10.880615234375,15.324951171875
0.0385,-24.994384765625,6.276123046875,18.447998046875
0.039,-23.472900390625,2.792724609375,20.489990234375
0.0395,-20.630126953125,-2.412353515625,22.772216796875
0.04,-17.707275390625,-8.057861328125,25.494873046875
0.0405,-12.181884765625,-12.782470703125,24.694091796875
0.041,-8.818603515625,-16.786376953125,25.334716796875
0.0415,-4.574462890625,-19.068603515625,23.332763671875
0.042,0.670654296875,-21.751220703125,20.970458984375
0.0425,5.195068359375,-23.392822265625,18.207763671875
0.043,11.080810546875,-25.154541015625,14.163818359375
0.0435,14.964599609375,-25.034423828125,10.280029296875
0.044,18.888427734375,-24.513916015625,5.915771484375
0.0445,20.690185546875,-23.072509765625,2.632568359375
0.045,23.332763671875,-20.630126953125,-2.492431640625
0.0455,25.334716796875,-17.867431640625,-7.377197265625
0.046,25.014404296875,-13.062744140625,-11.941650390625
0.0465,25.775146484375,-10.260009765625,-15.545166015625
0.047,24.013427734375,-5.815673828125,-18.227783203125
0.0475,22.291748046875,-1.851806640625,-20.550048828125
0.048,19.649169921875,2.912841796875,-22.592041015625
0.0485,16.165771484375,8.718505859375,-24.994384765625
0.049,11.321044921875,12.842529296875,-24.313720703125
0.0495,7.757568359375,16.766357421875,-24.593994140625
0.05,3.873779296875,18.608154296875,-22.511962890625
0.0505,-1.531494140625,21.531005859375,-20.189697265625
0.051,-6.095947265625,23.332763671875,-17.507080078125
0.0515,-11.661376953125,24.373779296875,-13.062744140625
0.052,-15.224853515625,24.654052734375,-9.939697265625
0.0525,-18.628173828125,23.653076171875,-5.495361328125
0.053,-20.510009765625,22.091552734375,-2.052001953125
0.0535,-22.912353515625,19.729248046875,2.752685546875
0.054,-24.834228515625,16.526123046875,7.997802734375
0.0545,-24.273681640625,11.681396484375,12.281982421875
0.055,-25.074462890625,9.118896484375,15.725341796875
0.0555,-23.032470703125,4.954833984375,17.887451171875
0.056,-21.310791015625,0.550537109375,20.610107421875
0.0565,-18.548095703125,-4.214111328125,22.451904296875
0.057,-14.624267578125,-10.099853515625,24.373779296875
0.0575,-10.420166015625,-13.783447265625,23.853271484375
0.058,-6.416259765625,-17.306884765625,23.412841796875
0.0585,-2.452392578125,-18.948486328125,21.210693359375
0.059,2.592529296875,-21.791259765625,19.128662109375
0.0595,7.757568359375,-23.512939453125,15.765380859375
0.06,12.842529296875,-24.033447265625,11.240966796875
0.0605,16.285888671875,-24.473876953125,8.438232421875
0.061,19.328857421875,-22.872314453125,3.833740234375
0.0615,21.450927734375,-21.110595703125,-0.170166015625
0.062,23.492919921875,-18.788330078125,-4.534423828125
0.0625,25.054443359375,-15.144775390625,-9.859619140625
0.063,24.213623046875,-10.540283203125,-13.663330078125
0.0635,24.614013671875,-7.817626953125,-16.866455078125
0.064,22.171630859375,-3.493408203125,-18.828369140625
0.0645,20.489990234375,1.231201171875,-21.791259765625
0.065,17.006591796875,6.156005859375,-23.232666015625
0.0655,12.802490234375,11.641357421875,-24.553955078125
0.066,9.078857421875,15.044677734375,-24.153564453125
0.0665,4.554443359375,18.247802734375,-22.872314453125
0.067,0.430419921875,19.969482421875,-20.469970703125
0.0675,-4.414306640625,22.652099609375,-18.548095703125
0.068,-9.859619140625,23.933349609375,-14.424072265625
0.0685,-14.303955078125,23.893310546875,-10.019775390625
0.069,-17.306884765625,24.293701171875,-7.457275390625
0.0695,-19.989501953125,22.091552734375,-2.612548828125
0.07,-22.231689453125,20.169677734375,1.671630859375
0.0705,-23.593017578125,17.286865234375,5.915771484375
0.071,-24.874267578125,13.363037109375,11.240966796875
0.0715,-23.993408203125,9.239013671875,14.484130859375
0.072,-23.793212890625,6.115966796875,17.447021484375
0.0725,-21.270751953125,1.951904296875,19.168701171875
0.073,-19.549072265625,-2.812744140625,22.091552734375
0.0735,-15.425048828125,-7.857666015625,22.932373046875
0.074,-11.260986328125,-12.742431640625,23.693115234375
0.0745,-8.137939453125,-15.665283203125,23.532958984375
0.075,-3.173095703125,-18.427978515625,21.410888671875
0.0755,0.830810546875,-20.149658203125,19.248779296875
0.076,5.595458984375,-22.511962890625,16.926513671875
0.0765,10.880615234375,-23.673095703125,12.882568359375
0.077,14.884521484375,-23.232666015625,8.558349609375
0.0775,17.647216796875,-23.432861328125,6.035888671875
0.078,20.009521484375,-21.110595703125,1.391357421875
0.0785,22.491943359375,-19.308837890625,-3.052978515625
0.079,23.132568359375,-15.985595703125,-7.056884765625
0.0795,24.333740234375,-12.302001953125,-11.981689453125
0.08,23.572998046875,-8.818603515625,-14.784423828125
0.0805,22.572021484375,-5.094970703125,-17.627197265625
0.081,20.369873046875,-1.251220703125,-19.268798828125
0.0815,18.407958984375,3.713623046875,-22.231689453125
0.082,14.083740234375,8.758544921875,-22.912353515625
0.0825,9.999755859375,13.082763671875,-23.112548828125
0.083,7.317138671875,15.725341796875,-23.032470703125
0.0835,2.072021484375,18.367919921875,-20.510009765625
0.084,-1.931884765625,20.369873046875,-18.708251953125
0.0845,-6.656494140625,22.051513671875,-15.665283203125
0.085,-11.461181640625,23.332763671875,-12.261962890625
0.0855,-14.984619140625,22.612060546875,-8.137939453125
0.086,-17.547119140625,22.411865234375,-5.375244140625
0.0865,-19.589111328125,20.169677734375,-1.091064453125
0.087,-22.311767578125,18.327880859375,3.593505859375
0.0875,-22.391845703125,14.243896484375,7.797607421875
0.088,-23.392822265625,10.920654296875,12.201904296875
0.0885,-22.912353515625,7.997802734375,14.684326171875
0.089,-21.390869140625,3.833740234375,17.326904296875
0.0895,-19.509033203125,0.150146484375,19.088623046875
0.09,-16.906494140625,-4.934814453125,21.571044921875
0.0905,-12.942626953125,-9.659423828125,22.411865234375
0.091,-8.818603515625,-13.503173828125,22.091552734375
0.0915,-6.216064453125,-15.745361328125,21.731201171875
0.092,-1.291259765625,-18.147705078125,19.248779296875
0.0925,2.872802734375,-20.550048828125,17.607177734375
0.093,7.757568359375,-21.390869140625,13.643310546875
0.0935,12.121826171875,-22.792236328125,10.840576171875
0.094,15.324951171875,-22.071533203125,6.996826171875
0.0945,17.807373046875,-21.310791015625,3.673583984375
0.095,19.769287109375,-19.228759765625,-0.370361328125
0.0955,22.331787109375,-17.306884765625,-4.894775390625
0.096,22.211669921875,-13.182861328125,-8.978759765625
0.0965,22.812255859375,-9.939697265625,-12.942626953125
0.097,22.371826171875,-7.377197265625,-15.104736328125
0.0975,20.409912109375,-2.732666015625,-17.907470703125
0.098,18.648193359375,1.271240234375,-19.989501953125
0.0985,15.204833984375,6.356201171875,-21.591064453125
0.099,11.921630859375,10.720458984375,-22.672119140625
0.0995,7.757568359375,14.243896484375,-22.071533203125
0.1,4.634521484375,16.406005859375,-21.110595703125
0.1005,-0.130126953125,18.688232421875,-18.748291015625
0.101,-4.694580078125,21.370849609375,-16.986572265625
0.1015,-9.379150390625,21.531005859375,-12.502197265625
0.102,-13.302978515625,22.732177734375,-9.779541015625
0.1025,-16.065673828125,21.891357421875,-6.336181640625
0.103,-18.628173828125,20.650146484375,-2.492431640625
0.1035,-20.469970703125,18.488037109375,1.591552734375
0.104,-22.431884765625,15.685302734375,6.396240234375
0.1045,-22.471923828125,11.841552734375,10.360107421875
0.105,-22.592041015625,8.398193359375,13.923583984375
0.1055,-21.871337890625,5.835693359375,15.725341796875
0.106,-19.789306640625,1.151123046875,18.447998046875
0.1065,-17.747314453125,-3.253173828125,20.810302734375
0.107,-13.503173828125,-8.258056640625,21.490966796875
0.1075,-10.660400390625,-12.181884765625,22.572021484375
0.108,-6.456298828125,-15.184814453125,21.410888671875
0.1085,-2.852783203125,-17.346923828125,19.929443359375
0.109,1.431396484375,-19.348876953125,17.807373046875
0.1095,6.676513671875,-21.911376953125,15.244873046875
0.11,10.880615234375,-21.751220703125,10.960693359375
0.1105,14.804443359375,-22.592041015625,7.957763671875
0.111,17.006591796875,-21.470947265625,4.674560546875
0.1115,19.689208984375,-19.869384765625,0.390380859375
0.112,21.410888671875,-17.747314453125,-3.573486328125
0.1125,22.612060546875,-14.303955078125,-8.298095703125
0.113,22.892333984375,-11.140869140625,-11.821533203125
0.1135,22.371826171875,-7.377197265625,-15.144775390625
0.114,21.130615234375,-4.374267578125,-16.906494140625
0.1145,19.168701171875,0.310302734375,-19.468994140625
0.115,16.566162109375,5.235107421875,-21.831298828125
0.1155,12.041748046875,9.719482421875,-21.831298828125
0.116,9.439208984375,13.443115234375,-22.872314453125
0.1165,5.155029296875,16.005615234375,-21.150634765625
0.117,0.950927734375,18.407958984375,-19.468994140625
0.1175,-3.052978515625,20.249755859375,-17.427001953125
0.118,-8.498291015625,22.331787109375,-14.103759765625
0.1185,-12.181884765625,22.091552734375,-10.380126953125
0.119,-15.905517578125,22.451904296875,-7.016845703125
0.1195,-17.747314453125,21.050537109375,-3.813720703125
0.12,-20.269775390625,19.208740234375,0.670654296875
0.1205,-21.871337890625,16.686279296875,4.834716796875
0.121,-22.431884765625,12.602294921875,9.479248046875
0.1215,-23.032470703125,9.959716796875,12.762451171875
0.122,-21.911376953125,6.075927734375,15.645263671875
0.1225,-20.469970703125,2.712646484375,17.607177734375
0.123,-18.508056640625,-1.571533203125,19.849365234375
0.1235,-15.304931640625,-6.976806640625,22.051513671875
0.124,-10.860595703125,-11.020751953125,21.611083984375
0.1245,-8.137939453125,-14.544189453125,22.371826171875
0.125,-3.973876953125,-16.586181640625,20.249755859375
0.1255,0.470458984375,-19.108642578125,18.568115234375
0.126,4.514404296875,-20.750244140625,16.165771484375
0.1265,9.879638671875,-22.191650390625,12.362060546875
0.127,13.322998046875,-22.231689453125,9.038818359375
0.1275,16.726318359375,-21.951416015625,5.435302734375
0.128,18.528076171875,-20.349853515625,2.072021484375
0.1285,20.970458984375,-18.628173828125,-2.252197265625
0.129,22.371826171875,-15.705322265625,-6.616455078125
0.1295,22.371826171875,-11.501220703125,-10.900634765625
0.13,23.092529296875,-9.218994140625,-13.943603515625
0.1305,21.290771484375,-4.934814453125,-16.466064453125
0.131,19.849365234375,-1.251220703125,-18.708251953125
0.1315,17.527099609375,3.113037109375,-20.670166015625
0.132,13.963623046875,8.518310546875,-22.511962890625
0.1325,9.759521484375,12.201904296875,-21.951416015625
0.133,6.556396484375,15.525146484375,-22.111572265625
0.1335,2.352294921875,17.406982421875,-19.829345703125
0.134,-2.052001953125,20.089599609375,-18.227783203125
0.1345,-6.456298828125,21.370849609375,-15.144775390625
0.135,-11.381103515625,22.291748046875,-11.341064453125
0.1355,-14.464111328125,22.451904296875,-8.458251953125
0.136,-17.547119140625,21.450927734375,-4.374267578125
0.1365,-19.348876953125,19.689208984375,-0.810791015625
0.137,-21.470947265625,17.647216796875,3.473388671875
0.1375,-22.632080078125,14.123779296875,8.117919921875
0.138,-22.311767578125,10.039794921875,11.961669921875
0.1385,-22.832275390625,7.797607421875,14.804443359375
0.139,-20.670166015625,3.553466796875,16.966552734375
0.1395,-19.228759765625,-0.490478515625,19.529052734375
0.14,-16.185791015625,-4.894775390625,20.850341796875
0.1405,-12.542236328125,-10.059814453125,22.371826171875
0.141,-8.778564453125,-13.383056640625,21.851318359375
0.1415,-5.094970703125,-16.345947265625,21.130615234375
0.142,-1.051025390625,-18.067626953125,18.888427734375
0.1425,3.393310546875,-20.750244140625,17.326904296875
0.143,8.197998046875,-21.631103515625,13.483154296875
0.1435,12.562255859375,-22.231689453125,9.719482421875
0.144,15.605224609375,-22.471923828125,7.076904296875
0.1445,18.367919921875,-20.870361328125,2.672607421875
0.145,20.369873046875,-19.108642578125,-1.211181640625
0.1455,21.971435546875,-16.786376953125,-5.175048828125
0.146,23.012451171875,-13.262939453125,-9.739501953125
0.1465,22.371826171875,-9.259033203125,-13.142822265625
0.147,22.451904296875,-6.576416015625,-15.945556640625
0.1475,20.129638671875,-2.252197265625,-18.027587890625
0.148,18.688232421875,2.112060546875,-20.870361328125
0.1485,14.764404296875,6.716552734375,-21.470947265625
0.149,11.240966796875,11.401123046875,-22.712158203125
0.1495,7.757568359375,14.444091796875,-22.271728515625
0.15,3.433349609375,17.326904296875,-20.790283203125
0.1505,-0.690673828125,19.088623046875,-18.548095703125
0.151,-5.255126953125,21.571044921875,-16.626220703125
0.1515,-9.899658203125,22.171630859375,-12.662353515625
0.152,-13.903564453125,22.251708984375,-8.778564453125
0.1525,-16.586181640625,22.291748046875,-6.256103515625
0.153,-19.148681640625,20.249755859375,-1.651611328125
0.1535,-21.430908203125,18.407958984375,2.552490234375
0.154,-22.151611328125,15.124755859375,6.636474609375
0.1545,-23.272705078125,11.841552734375,11.080810546875
0.155,-22.431884765625,8.077880859375,14.123779296875
0.1555,-21.911376953125,4.954833984375,16.726318359375
0.156,-19.549072265625,0.750732421875,18.648193359375
0.1565,-17.787353515625,-4.013916015625,21.571044921875
0.157,-13.383056640625,-8.578369140625,21.651123046875
0.1575,-9.779541015625,-12.822509765625,22.371826171875
0.158,-6.696533203125,-15.385009765625,21.851318359375
0.1585,-1.851806640625,-18.107666015625,19.729248046875
0.159,2.152099609375,-19.909423828125,17.687255859375
0.1595,7.076904296875,-21.831298828125,14.764404296875
0.16,11.401123046875,-22.552001953125,11.361083984375
0.1605,15.244873046875,-22.271728515625,7.116943359375
0.161,17.647216796875,-21.911376953125,4.474365234375
0.1615,19.929443359375,-19.789306640625,0.030029296875
0.162,22.451904296875,-17.907470703125,-4.414306640625
0.1625,22.371826171875,-13.903564453125,-8.458251953125
0.163,23.452880859375,-10.900634765625,-12.542236328125
0.1635,22.451904296875,-7.297119140625,-15.264892578125
0.164,21.290771484375,-3.453369140625,-17.947509765625
0.1645,19.048583984375,0.710693359375,-19.829345703125
0.165,16.566162109375,5.835693359375,-22.431884765625
0.1655,12.241943359375,10.119873046875,-22.431884765625
0.166,8.478271484375,14.163818359375,-22.712158203125
0.1665,5.355224609375,16.365966796875,-21.791259765625
0.167,0.190185546875,19.208740234375,-19.509033203125
0.1675,-3.973876953125,21.290771484375,-17.547119140625
0.168,-9.098876953125,22.411865234375,-13.583251953125
0.1685,-12.942626953125,23.172607421875,-10.620361328125
0.169,-16.626220703125,22.411865234375,-6.296142578125
0.1695,-18.868408203125,21.490966796875,-3.213134765625
0.17,-20.990478515625,19.248779296875,1.271240234375
0.1705,-23.352783203125,16.886474609375,6.115966796875
0.171,-22.792236328125,12.322021484375,10.199951171875
0.1715,-23.673095703125,9.479248046875,14.003662109375
0.172,-22.471923828125,5.955810546875,16.325927734375
0.1725,-20.910400390625,1.591552734375,19.088623046875
0.173,-18.508056640625,-2.652587890625,20.930419921875
0.1735,-15.064697265625,-8.137939453125,22.932373046875
0.174,-11.100830078125,-12.021728515625,22.852294921875
0.1745,-7.056884765625,-15.865478515625,22.612060546875
0.175,-3.533447265625,-17.787353515625,21.130615234375
0.1755,1.511474609375,-20.389892578125,18.808349609375
0.176,6.196044921875,-22.552001953125,16.365966796875
0.1765,11.240966796875,-22.952392578125,11.761474609375
0.177,14.884521484375,-23.713134765625,8.958740234375
0.1775,18.247802734375,-22.511962890625,4.394287109375
0.178,20.530029296875,-21.070556640625,0.750732421875
0.1785,22.411865234375,-18.708251953125,-3.533447265625
0.179,24.413818359375,-15.865478515625,-8.578369140625
0.1795,23.532958984375,-11.220947265625,-12.302001953125
0.18,24.053466796875,-8.218017578125,-15.985595703125
0.1805,22.291748046875,-4.334228515625,-18.027587890625
