wavelength,x,y,z
0.0,-2.752685546875,0.610595703125,2.652587890625
0.0005,-2.952880859375,1.010986328125,2.372314453125
0.001,-3.072998046875,1.651611328125,1.731689453125
0.0015,-3.113037109375,2.132080078125,1.131103515625
0.002,-2.952880859375,2.372314453125,0.690673828125
0.0025,-2.832763671875,2.612548828125,0.250244140625
0.003,-2.552490234375,2.692626953125,-0.350341796875
0.0035,-2.072021484375,2.772705078125,-1.111083984375
0.004,-1.591552734375,2.812744140625,-1.751708984375
0.0045,-0.990966796875,2.652587890625,-2.312255859375
0.005,-0.630615234375,2.532470703125,-2.712646484375
0.0055,-0.150146484375,2.292236328125,-2.992919921875
0.006,0.450439453125,2.052001953125,-3.393310546875
0.0065,1.291259765625,1.371337890625,-3.593505859375
0.007,1.931884765625,0.810791015625,-3.713623046875
0.0075,2.292236328125,0.370361328125,-3.673583984375
0.008,2.572509765625,-0.150146484375,-3.553466796875
0.0085,2.852783203125,-0.630615234375,-3.353271484375
0.009,3.052978515625,-1.271240234375,-2.912841796875
0.0095,3.173095703125,-1.831787109375,-2.432373046875
0.01,3.213134765625,-2.352294921875,-1.671630859375
0.0105,3.052978515625,-2.592529296875,-1.151123046875
0.011,2.892822265625,-2.792724609375,-0.630615234375
0.0115,2.692626953125,-3.032958984375,0.010009765625
0.012,1.931884765625,-3.072998046875,0.930908203125
0.0125,1.411376953125,-3.072998046875,1.571533203125
0.013,0.810791015625,-2.832763671875,2.052001953125
0.0135,0.410400390625,-2.712646484375,2.452392578125
0.014,-0.270263671875,-2.272216796875,2.732666015625
0.0145,-0.950927734375,-1.831787109375,3.052978515625
0.015,-1.791748046875,-1.151123046875,3.253173828125
0.0155,-2.352294921875,-0.550537109375,3.253173828125
0.016,-2.592529296875,0.010009765625,3.133056640625
0.0165,-2.832763671875,0.330322265625,2.892822265625
0.017,-3.032958984375,0.810791015625,2.572509765625
0.0175,-3.072998046875,1.531494140625,1.851806640625
0.018,-3.193115234375,2.052001953125,1.371337890625
0.0185,-3.072998046875,2.492431640625,0.810791015625
0.019,-2.912841796875,2.612548828125,0.290283203125
0.0195,-2.592529296875,2.692626953125,-0.310302734375
0.02,-2.272216796875,2.852783203125,-0.910888671875
0.0205,-1.551513671875,2.852783203125,-1.791748046875
0.021,-0.990966796875,2.732666015625,-2.352294921875
0.0215,-0.590576171875,2.532470703125,-2.672607421875
0.022,-0.190185546875,2.372314453125,-3.032958984375
0.0225,0.490478515625,1.971923828125,-3.313232421875
0.023,1.251220703125,1.331298828125,-3.553466796875
0.0235,1.851806640625,0.890869140625,-3.713623046875
0.024,2.292236328125,0.290283203125,-3.673583984375
0.0245,2.532470703125,-0.150146484375,-3.553466796875
0.025,2.692626953125,-0.630615234375,-3.233154296875
0.0255,2.972900390625,-1.031005859375,-3.072998046875
0.026,3.052978515625,-1.671630859375,-2.352294921875
0.0265,3.093017578125,-2.192138671875,-1.791748046875
0.027,3.052978515625,-2.432373046875,-1.311279296875
0.0275,2.892822265625,-2.712646484375,-0.830810546875
0.028,2.612548828125,-2.832763671875,-0.270263671875
0.0285,2.212158203125,-2.912841796875,0.490478515625
0.029,1.651611328125,-2.952880859375,1.211181640625
0.0295,1.051025390625,-2.792724609375,1.771728515625
0.03,0.650634765625,-2.632568359375,2.132080078125
0.0305,0.210205078125,-2.472412109375,2.492431640625
0.031,-0.430419921875,-2.192138671875,2.852783203125
0.0315,-1.271240234375,-1.431396484375,3.052978515625
0.032,-1.911865234375,-0.990966796875,3.173095703125
0.0325,-2.272216796875,-0.470458984375,3.173095703125
0.033,-2.592529296875,0.010009765625,3.052978515625
0.0335,-2.752685546875,0.490478515625,2.692626953125
0.034,-3.032958984375,1.091064453125,2.412353515625
0.0345,-3.153076171875,1.731689453125,1.771728515625
0.035,-3.153076171875,2.172119140625,1.211181640625
0.0355,-2.992919921875,2.412353515625,0.690673828125
0.036,-2.872802734375,2.652587890625,0.210205078125
0.0365,-2.592529296875,2.852783203125,-0.470458984375
0.037,-1.951904296875,2.852783203125,-1.271240234375
0.0375,-1.431396484375,2.852783203125,-1.951904296875
0.038,-0.910888671875,2.692626953125,-2.392333984375
0.0385,-0.510498046875,2.532470703125,-2.752685546875
0.039,0.090087890625,2.252197265625,-3.072998046875
0.0395,0.770751953125,1.851806640625,-3.473388671875
0.04,1.571533203125,1.131103515625,-3.633544921875
0.0405,2.052001953125,0.610595703125,-3.633544921875
0.041,2.412353515625,0.130126953125,-3.553466796875
0.0415,2.612548828125,-0.350341796875,-3.473388671875
0.042,2.812744140625,-0.790771484375,-3.072998046875
0.0425,2.932861328125,-1.391357421875,-2.552490234375
0.043,3.093017578125,-1.991943359375,-1.991943359375
0.0435,3.052978515625,-2.312255859375,-1.471435546875
0.044,2.892822265625,-2.552490234375,-0.990966796875
0.0445,2.652587890625,-2.712646484375,-0.470458984375
0.045,2.412353515625,-2.912841796875,0.170166015625
0.0455,1.691650390625,-2.872802734375,0.970947265625
0.046,1.211181640625,-2.832763671875,1.571533203125
0.0465,0.770751953125,-2.712646484375,2.011962890625
0.047,0.370361328125,-2.552490234375,2.332275390625
0.0475,-0.270263671875,-2.192138671875,2.612548828125
0.048,-0.950927734375,-1.671630859375,2.932861328125
0.0485,-1.671630859375,-1.151123046875,3.133056640625
0.049,-2.112060546875,-0.630615234375,3.133056640625
0.0495,-2.432373046875,-0.230224609375,3.012939453125
0.05,-2.672607421875,0.290283203125,2.852783203125
0.0505,-2.912841796875,0.810791015625,2.572509765625
0.051,-2.952880859375,1.451416015625,1.931884765625
0.0515,-3.072998046875,1.931884765625,1.411376953125
0.052,-3.032958984375,2.292236328125,0.890869140625
0.0525,-2.912841796875,2.532470703125,0.450439453125
0.053,-2.632568359375,2.692626953125,-0.190185546875
0.0535,-2.272216796875,2.852783203125,-0.870849609375
0.054,-1.631591796875,2.852783203125,-1.671630859375
0.0545,-1.151123046875,2.692626953125,-2.192138671875
0.055,-0.670654296875,2.572509765625,-2.592529296875
0.0555,-0.270263671875,2.412353515625,-2.952880859375
0.056,0.370361328125,2.052001953125,-3.273193359375
0.0565,1.211181640625,1.371337890625,-3.513427734375
0.057,1.891845703125,0.810791015625,-3.673583984375
0.0575,2.212158203125,0.330322265625,-3.633544921875
0.058,2.492431640625,0.010009765625,-3.473388671875
0.0585,2.692626953125,-0.510498046875,-3.233154296875
0.059,2.932861328125,-1.111083984375,-2.872802734375
0.0595,3.052978515625,-1.751708984375,-2.272216796875
0.06,3.052978515625,-2.152099609375,-1.711669921875
0.0605,2.932861328125,-2.472412109375,-1.231201171875
0.061,2.812744140625,-2.632568359375,-0.710693359375
0.0615,2.532470703125,-2.832763671875,-0.150146484375
0.062,1.931884765625,-2.872802734375,0.690673828125
0.0625,1.371337890625,-2.912841796875,1.451416015625
0.063,0.930908203125,-2.752685546875,1.851806640625
0.0635,0.490478515625,-2.592529296875,2.212158203125
0.064,0.010009765625,-2.312255859375,2.532470703125
0.0645,-0.710693359375,-1.951904296875,2.892822265625
0.065,-1.471435546875,-1.311279296875,3.133056640625
0.0655,-2.072021484375,-0.750732421875,3.093017578125
0.066,-2.392333984375,-0.310302734375,3.052978515625
0.0665,-2.592529296875,0.130126953125,2.892822265625
0.067,-2.832763671875,0.650634765625,2.612548828125
0.0675,-2.992919921875,1.211181640625,2.132080078125
0.068,-3.072998046875,1.891845703125,1.491455078125
0.0685,-3.072998046875,2.212158203125,1.010986328125
0.069,-2.912841796875,2.492431640625,0.530517578125
0.0695,-2.752685546875,2.612548828125,0.010009765625
0.07,-2.432373046875,2.772705078125,-0.630615234375
0.0705,-1.791748046875,2.812744140625,-1.431396484375
0.071,-1.231201171875,2.732666015625,-2.112060546875
0.0715,-0.830810546875,2.612548828125,-2.512451171875
0.072,-0.390380859375,2.412353515625,-2.832763671875
0.0725,0.210205078125,2.092041015625,-3.153076171875
0.073,0.970947265625,1.571533203125,-3.433349609375
0.0735,1.611572265625,0.970947265625,-3.673583984375
0.074,2.052001953125,0.530517578125,-3.593505859375
0.0745,2.412353515625,0.090087890625,-3.553466796875
0.075,2.612548828125,-0.390380859375,-3.353271484375
0.0755,2.852783203125,-0.830810546875,-3.032958984375
0.076,2.972900390625,-1.471435546875,-2.512451171875
0.0765,3.052978515625,-2.072021484375,-1.871826171875
0.077,3.012939453125,-2.312255859375,-1.431396484375
0.0775,2.812744140625,-2.552490234375,-0.950927734375
0.078,2.572509765625,-2.712646484375,-0.390380859375
0.0785,2.172119140625,-2.832763671875,0.330322265625
0.079,1.651611328125,-2.832763671875,1.010986328125
0.0795,1.131103515625,-2.712646484375,1.571533203125
0.08,0.770751953125,-2.592529296875,1.971923828125
0.0805,0.290283203125,-2.432373046875,2.292236328125
0.081,-0.270263671875,-2.192138671875,2.612548828125
0.0815,-1.031005859375,-1.591552734375,2.852783203125
0.082,-1.711669921875,-0.990966796875,3.012939453125
0.0825,-2.031982421875,-0.590576171875,3.012939453125
0.083,-2.352294921875,-0.150146484375,2.892822265625
0.0835,-2.632568359375,0.290283203125,2.732666015625
0.084,-2.832763671875,0.890869140625,2.372314453125
0.0845,-2.952880859375,1.411376953125,1.931884765625
0.085,-3.032958984375,1.931884765625,1.331298828125
0.0855,-2.952880859375,2.252197265625,0.890869140625
0.086,-2.872802734375,2.492431640625,0.410400390625
0.0865,-2.632568359375,2.692626953125,-0.190185546875
0.087,-2.112060546875,2.772705078125,-0.990966796875
0.0875,-1.551513671875,2.812744140625,-1.711669921875
0.088,-1.111083984375,2.652587890625,-2.152099609375
0.0885,-0.630615234375,2.532470703125,-2.592529296875
0.089,-0.190185546875,2.292236328125,-2.952880859375
0.0895,0.490478515625,1.931884765625,-3.353271484375
0.09,1.291259765625,1.411376953125,-3.553466796875
0.0905,1.931884765625,0.730712890625,-3.673583984375
0.091,2.252197265625,0.330322265625,-3.633544921875
0.0915,2.532470703125,-0.150146484375,-3.433349609375
0.092,2.812744140625,-0.630615234375,-3.193115234375
0.0925,2.932861328125,-1.311279296875,-2.592529296875
0.093,3.093017578125,-1.911865234375,-2.112060546875
0.0935,3.052978515625,-2.272216796875,-1.591552734375
0.094,2.972900390625,-2.552490234375,-1.031005859375
0.0945,2.692626953125,-2.672607421875,-0.550537109375
0.095,2.372314453125,-2.872802734375,0.130126953125
0.0955,1.771728515625,-2.872802734375,0.930908203125
0.096,1.211181640625,-2.832763671875,1.571533203125
0.0965,0.810791015625,-2.712646484375,1.931884765625
0.097,0.330322265625,-2.512451171875,2.252197265625
0.0975,-0.230224609375,-2.232177734375,2.532470703125
0.098,-0.990966796875,-1.591552734375,2.852783203125
0.0985,-1.551513671875,-1.151123046875,3.012939453125
0.099,-1.991943359375,-0.590576171875,2.972900390625
0.0995,-2.312255859375,-0.270263671875,2.892822265625
0.1,-2.512451171875,0.250244140625,2.692626953125
0.1005,-2.752685546875,0.690673828125,2.532470703125
0.101,-2.872802734375,1.291259765625,1.931884765625
0.1015,-2.952880859375,1.851806640625,1.411376953125
0.102,-2.912841796875,2.132080078125,0.970947265625
0.1025,-2.832763671875,2.412353515625,0.490478515625
0.103,-2.632568359375,2.532470703125,0.010009765625
0.1035,-2.272216796875,2.692626953125,-0.670654296875
0.104,-1.791748046875,2.732666015625,-1.351318359375
0.1045,-1.231201171875,2.612548828125,-1.991943359375
0.105,-0.910888671875,2.532470703125,-2.392333984375
0.1055,-0.390380859375,2.332275390625,-2.752685546875
0.106,0.130126953125,2.252197265625,-3.193115234375
0.1065,0.970947265625,1.571533203125,-3.393310546875
0.107,1.611572265625,1.051025390625,-3.593505859375
0.1075,1.971923828125,0.570556640625,-3.593505859375
0.108,2.412353515625,0.130126953125,-3.553466796875
0.1085,2.652587890625,-0.390380859375,-3.353271484375
0.109,2.932861328125,-0.990966796875,-2.992919921875
0.1095,3.133056640625,-1.591552734375,-2.512451171875
0.11,3.133056640625,-2.192138671875,-1.791748046875
0.1105,3.052978515625,-2.472412109375,-1.311279296875
0.111,2.892822265625,-2.712646484375,-0.790771484375
0.1115,2.692626953125,-2.912841796875,-0.190185546875
0.112,1.931884765625,-2.952880859375,0.770751953125
0.1125,1.451416015625,-3.072998046875,1.451416015625
0.113,0.890869140625,-2.872802734375,1.931884765625
0.1135,0.490478515625,-2.712646484375,2.292236328125
0.114,-0.150146484375,-2.272216796875,2.572509765625
0.1145,-0.790771484375,-1.911865234375,2.932861328125
0.115,-1.631591796875,-1.191162109375,3.133056640625
0.1155,-2.152099609375,-0.590576171875,3.173095703125
0.116,-2.392333984375,-0.190185546875,3.012939453125
0.1165,-2.632568359375,0.290283203125,2.812744140625
0.117,-2.832763671875,0.730712890625,2.532470703125
0.1175,-2.912841796875,1.411376953125,1.891845703125
0.118,-3.072998046875,1.851806640625,1.531494140625
0.1185,-2.952880859375,2.252197265625,0.890869140625
0.119,-2.832763671875,2.412353515625,0.450439453125
0.1195,-2.552490234375,2.532470703125,-0.150146484375
0.12,-2.312255859375,2.652587890625,-0.630615234375
0.1205,-1.631591796875,2.652587890625,-1.431396484375
0.121,-1.191162109375,2.572509765625,-1.991943359375
0.1215,-0.790771484375,2.412353515625,-2.392333984375
0.122,-0.390380859375,2.372314453125,-2.712646484375
0.1225,0.170166015625,2.052001953125,-2.992919921875
0.123,0.810791015625,1.571533203125,-3.273193359375
0.1235,1.411376953125,1.131103515625,-3.553466796875
0.124,1.931884765625,0.570556640625,-3.513427734375
0.1245,2.252197265625,0.250244140625,-3.513427734375
0.125,2.532470703125,-0.270263671875,-3.313232421875
0.1255,2.852783203125,-0.710693359375,-3.193115234375
0.126,2.932861328125,-1.351318359375,-2.552490234375
0.1265,3.052978515625,-1.871826171875,-2.072021484375
0.127,3.052978515625,-2.232177734375,-1.591552734375
0.1275,2.932861328125,-2.552490234375,-1.111083984375
0.128,2.692626953125,-2.712646484375,-0.590576171875
0.1285,2.372314453125,-2.912841796875,0.170166015625
0.129,1.851806640625,-2.992919921875,0.930908203125
0.1295,1.211181640625,-2.912841796875,1.571533203125
0.13,0.850830078125,-2.752685546875,1.971923828125
0.1305,0.370361328125,-2.552490234375,2.412353515625
0.131,-0.310302734375,-2.272216796875,2.812744140625
0.1315,-1.231201171875,-1.551513671875,3.052978515625
0.132,-1.791748046875,-1.071044921875,3.213134765625
0.1325,-2.312255859375,-0.510498046875,3.173095703125
0.133,-2.592529296875,-0.110107421875,3.093017578125
0.1335,-2.792724609375,0.490478515625,2.732666015625
0.134,-3.072998046875,1.051025390625,2.412353515625
0.1345,-3.193115234375,1.771728515625,1.731689453125
0.135,-3.153076171875,2.252197265625,1.131103515625
0.1355,-3.032958984375,2.492431640625,0.610595703125
0.136,-2.832763671875,2.692626953125,0.130126953125
0.1365,-2.472412109375,2.732666015625,-0.590576171875
0.137,-1.871826171875,2.852783203125,-1.431396484375
0.1375,-1.311279296875,2.772705078125,-2.112060546875
0.138,-0.790771484375,2.652587890625,-2.552490234375
0.1385,-0.350341796875,2.412353515625,-2.832763671875
0.139,0.250244140625,2.052001953125,-3.113037109375
0.1395,0.890869140625,1.731689453125,-3.473388671875
0.14,1.651611328125,0.970947265625,-3.593505859375
0.1405,2.092041015625,0.490478515625,-3.593505859375
0.141,2.412353515625,0.050048828125,-3.513427734375
0.1415,2.612548828125,-0.350341796875,-3.353271484375
0.142,2.772705078125,-0.830810546875,-2.992919921875
0.1425,2.932861328125,-1.431396484375,-2.512451171875
0.143,3.052978515625,-1.991943359375,-1.951904296875
0.1435,3.012939453125,-2.352294921875,-1.431396484375
0.144,2.852783203125,-2.512451171875,-0.990966796875
0.1445,2.652587890625,-2.752685546875,-0.470458984375
0.145,2.412353515625,-2.912841796875,0.130126953125
0.1455,1.651611328125,-2.872802734375,0.970947265625
0.146,1.251220703125,-2.792724609375,1.531494140625
0.1465,0.770751953125,-2.712646484375,1.971923828125
0.147,0.370361328125,-2.552490234375,2.332275390625
0.1475,-0.230224609375,-2.232177734375,2.652587890625
0.148,-0.910888671875,-1.791748046875,3.012939453125
0.1485,-1.671630859375,-1.151123046875,3.173095703125
0.149,-2.112060546875,-0.630615234375,3.173095703125
0.1495,-2.512451171875,-0.150146484375,3.093017578125
0.15,-2.752685546875,0.330322265625,2.932861328125
0.1505,-3.032958984375,0.810791015625,2.692626953125
0.151,-3.113037109375,1.571533203125,1.971923828125
0.1515,-3.233154296875,2.092041015625,1.411376953125
0.152,-3.193115234375,2.492431640625,0.890869140625
0.1525,-3.032958984375,2.612548828125,0.370361328125
0.153,-2.712646484375,2.772705078125,-0.270263671875
0.1535,-2.352294921875,2.972900390625,-0.990966796875
0.154,-1.591552734375,3.012939453125,-1.911865234375
0.1545,-0.990966796875,2.852783203125,-2.432373046875
0.155,-0.590576171875,2.692626953125,-2.872802734375
0.1555,0.010009765625,2.452392578125,-3.193115234375
0.156,0.650634765625,1.971923828125,-3.553466796875
0.1565,1.571533203125,1.251220703125,-3.793701171875
0.157,2.292236328125,0.610595703125,-3.913818359375
0.1575,2.612548828125,0.170166015625,-3.793701171875
0.158,2.812744140625,-0.350341796875,-3.553466796875
0.1585,3.012939453125,-0.830810546875,-3.193115234375
0.159,3.173095703125,-1.471435546875,-2.712646484375
0.1595,3.253173828125,-2.192138671875,-1.951904296875
0.16,3.173095703125,-2.552490234375,-1.351318359375
0.1605,3.052978515625,-2.832763671875,-0.830810546875
0.161,2.732666015625,-2.872802734375,-0.350341796875
0.1615,2.332275390625,-2.952880859375,0.330322265625
0.162,1.651611328125,-2.952880859375,1.131103515625
0.1625,1.051025390625,-2.952880859375,1.931884765625
0.163,0.610595703125,-2.632568359375,2.212158203125
0.1635,0.170166015625,-2.432373046875,2.492431640625
0.164,-0.350341796875,-2.112060546875,2.772705078125
0.1645,-0.990966796875,-1.671630859375,3.012939453125
0.165,-1.791748046875,-0.990966796875,3.173095703125
0.1655,-2.272216796875,-0.430419921875,3.133056640625
0.166,-2.592529296875,0.010009765625,3.052978515625
0.1665,-2.712646484375,0.370361328125,2.852783203125
0.167,-2.872802734375,0.810791015625,2.532470703125
0.1675,-3.072998046875,1.411376953125,2.052001953125
0.168,-3.153076171875,1.971923828125,1.451416015625
0.1685,-3.072998046875,2.252197265625,1.010986328125
0.169,-2.952880859375,2.532470703125,0.490478515625
0.1695,-2.832763671875,2.692626953125,-0.150146484375
0.17,-2.512451171875,2.852783203125,-0.630615234375
0.1705,-1.871826171875,2.852783203125,-1.431396484375
0.171,-1.271240234375,2.852783203125,-2.152099609375
0.1715,-0.830810546875,2.692626953125,-2.552490234375
0.172,-0.390380859375,2.532470703125,-2.912841796875
0.1725,0.210205078125,2.252197265625,-3.273193359375
0.173,0.970947265625,1.731689453125,-3.593505859375
0.1735,1.731689453125,1.131103515625,-3.833740234375
0.174,2.212158203125,0.570556640625,-3.793701171875
0.1745,2.612548828125,0.090087890625,-3.793701171875
0.175,2.852783203125,-0.470458984375,-3.553466796875
0.1755,3.093017578125,-0.990966796875,-3.193115234375
0.176,3.213134765625,-1.671630859375,-2.552490234375
0.1765,3.333251953125,-2.432373046875,-1.831787109375
0.177,3.213134765625,-2.632568359375,-1.311279296875
0.1775,3.012939453125,-2.872802734375,-0.790771484375
0.178,2.692626953125,-2.992919921875,-0.190185546875
0.1785,2.172119140625,-3.072998046875,0.690673828125
0.179,1.531494140625,-3.072998046875,1.491455078125
0.1795,0.850830078125,-2.872802734375,2.052001953125
0.18,0.450439453125,-2.712646484375,2.452392578125
0.1805,-0.110107421875,-2.392333984375,2.692626953125
0.181,-0.710693359375,-1.991943359375,3.012939453125
0.1815,-1.631591796875,-1.231201171875,3.173095703125
0.182,-2.272216796875,-0.630615234375,3.253173828125
0.1825,-2.512451171875,-0.190185546875,3.133056640625
0.183,-2.752685546875,0.290283203125,2.932861328125
0.1835,-2.872802734375,0.690673828125,2.612548828125
0.184,-2.992919921875,1.291259765625,2.092041015625
0.1845,-3.113037109375,1.771728515625,1.571533203125
0.185,-3.072998046875,2.292236328125,0.930908203125
0.1855,-2.952880859375,2.452392578125,0.490478515625
0.186,-2.712646484375,2.612548828125,0.010009765625
0.1865,-2.472412109375,2.772705078125,-0.590576171875
0.187,-1.831787109375,2.772705078125,-1.351318359375
0.1875,-1.271240234375,2.772705078125,-2.031982421875
0.188,-0.830810546875,2.572509765625,-2.432373046875
