wavelength,x,y,z
0.0,-10.330078125,10.890625,-1.041015625
0.0005,-8.48828125,10.890625,-3.04296875
0.001,-7.0869140625,10.5302734375,-4.1240234375
0.0015,-4.7646484375,10.5703125,-6.6064453125
0.002,-2.2021484375,9.9296875,-8.3681640625
0.0025,-0.2802734375,9.4091796875,-9.7294921875
0.003,1.841796875,8.96875,-11.291015625
0.0035,3.6435546875,7.0869140625,-11.2109375
0.004,5.205078125,5.60546875,-11.2509765625
0.0045,8.0478515625,3.0029296875,-11.4111328125
0.005,9.44921875,0.5205078125,-10.2900390625
0.0055,11.0107421875,-1.28125,-10.2099609375
0.006,11.8916015625,-3.203125,-9.12890625
0.0065,11.5712890625,-4.8447265625,-7.1669921875
0.007,11.6513671875,-6.7265625,-5.28515625
0.0075,11.451171875,-9.0087890625,-2.7626953125
0.008,10.2099609375,-9.7294921875,-0.80078125
0.0085,10.2099609375,-11.291015625,0.880859375
0.009,8.087890625,-11.2509765625,2.9228515625
0.0095,6.326171875,-10.73046875,4.2041015625
0.01,4.00390625,-10.7705078125,6.6865234375
0.0105,1.44140625,-9.9697265625,8.408203125
0.011,-0.3603515625,-9.3291015625,9.4892578125
0.0115,-2.2421875,-8.8486328125,10.8505859375
0.012,-4.1640625,-6.7265625,10.650390625
0.0125,-6.005859375,-4.884765625,10.5703125
0.013,-8.7685546875,-2.3623046875,10.7705078125
0.0135,-9.9296875,0.240234375,9.4091796875
0.014,-11.2509765625,1.5615234375,9.3291015625
0.0145,-11.8916015625,3.5234375,8.0078125
0.015,-11.4111328125,5.2451171875,5.8056640625
0.0155,-11.4912109375,7.287109375,3.84375
0.016,-11.2109375,9.44921875,1.3212890625
0.0165,-9.8095703125,9.8896484375,-0.640625
0.017,-9.8095703125,11.1708984375,-1.9619140625
0.0175,-7.447265625,10.8505859375,-4.1240234375
0.018,-5.4853515625,10.3701171875,-5.525390625
0.0185,-3.203125,10.5302734375,-7.9677734375
0.019,-0.640625,9.5693359375,-9.5693359375
0.0195,0.9609375,8.9287109375,-10.41015625
0.02,2.6826171875,8.328125,-11.53125
0.0205,4.724609375,6.0859375,-11.2509765625
0.021,6.6865234375,3.9638671875,-11.0908203125
0.0215,9.44921875,1.4013671875,-11.2509765625
0.022,10.3701171875,-1.041015625,-9.76953125
0.0225,11.4912109375,-2.08203125,-9.8095703125
0.023,11.9716796875,-4.1240234375,-8.248046875
0.0235,11.4111328125,-5.92578125,-5.845703125
0.024,11.4912109375,-8.087890625,-3.8037109375
0.0245,11.05078125,-10.169921875,-1.28125
0.025,9.6494140625,-10.3701171875,0.48046875
0.0255,9.609375,-11.4912109375,1.6416015625
0.026,7.046875,-10.970703125,3.8837890625
0.0265,4.8046875,-10.41015625,5.5654296875
0.027,2.5224609375,-10.6103515625,8.0478515625
0.0275,0.0,-9.529296875,9.44921875
0.028,-1.44140625,-8.9287109375,10.1298828125
0.0285,-3.1630859375,-8.1279296875,11.0107421875
0.029,-5.3251953125,-5.685546875,10.6904296875
0.0295,-7.52734375,-3.3232421875,10.490234375
0.03,-10.25,-0.6806640625,10.5302734375
0.0305,-10.810546875,1.521484375,8.96875
0.031,-11.7314453125,2.40234375,8.96875
0.0315,-12.0517578125,4.64453125,7.046875
0.032,-11.4912109375,6.56640625,4.484375
0.0325,-11.4912109375,8.8486328125,2.2421875
0.033,-10.890625,10.6904296875,-0.3603515625
0.0335,-9.44921875,10.6103515625,-1.841796875
0.034,-9.12890625,11.4912109375,-2.9228515625
0.0345,-6.2861328125,10.970703125,-5.365234375
0.035,-3.8837890625,10.3701171875,-7.126953125
0.0355,-1.4814453125,10.5302734375,-9.689453125
0.036,1.12109375,9.2490234375,-10.8505859375
0.0365,2.162109375,8.6083984375,-11.2109375
0.037,3.9638671875,7.4873046875,-11.8916015625
0.0375,6.3662109375,4.8046875,-11.53125
0.038,8.568359375,2.2421875,-11.2109375
0.0385,11.2109375,-0.48046875,-11.1708984375
0.039,11.53125,-2.40234375,-9.529296875
0.0395,12.171875,-3.203125,-9.2890625
0.04,12.3720703125,-5.8056640625,-7.046875
0.0405,11.69140625,-7.6875,-4.484375
0.041,11.611328125,-9.9697265625,-2.0419921875
0.0415,10.8505859375,-11.611328125,0.4404296875
0.042,9.2490234375,-11.2509765625,1.76171875
0.0425,8.6484375,-11.7314453125,2.9228515625
0.043,5.60546875,-11.291015625,5.6455078125
0.0435,3.1630859375,-10.5703125,7.3671875
0.044,0.6005859375,-10.6103515625,9.9296875
0.0445,-1.8017578125,-9.2890625,10.8505859375
0.045,-2.72265625,-8.48828125,10.890625
0.0455,-4.8046875,-6.966796875,11.4912109375
0.046,-7.3271484375,-4.1640625,11.130859375
0.0465,-9.2890625,-1.6416015625,10.5703125
0.047,-11.771484375,0.9609375,10.490234375
0.0475,-11.8916015625,2.8427734375,8.6884765625
0.048,-12.251953125,3.84375,8.087890625
0.0485,-12.4921875,6.56640625,5.4853515625
0.049,-11.69140625,8.2080078125,3.04296875
0.0495,-11.4111328125,10.2900390625,0.6005859375
0.05,-10.650390625,11.8115234375,-1.681640625
0.0505,-8.8486328125,11.291015625,-3.04296875
0.051,-7.8876953125,11.5712890625,-4.3642578125
0.0515,-4.724609375,11.2109375,-7.126953125
0.052,-2.322265625,10.3701171875,-8.6884765625
0.0525,0.240234375,10.330078125,-11.130859375
0.053,2.40234375,8.96875,-11.8515625
0.0535,3.443359375,7.8876953125,-11.7314453125
0.054,5.765625,5.9658203125,-12.171875
0.0545,8.248046875,3.1630859375,-11.7314453125
0.055,9.9296875,0.720703125,-10.970703125
0.0555,12.171875,-1.6416015625,-10.890625
0.056,12.2119140625,-3.603515625,-9.0087890625
0.0565,12.33203125,-4.7646484375,-8.0078125
0.057,12.4521484375,-7.5673828125,-5.365234375
0.0575,11.611328125,-9.048828125,-3.0029296875
0.058,11.2109375,-10.7705078125,-0.80078125
0.0585,10.490234375,-12.0517578125,1.44140625
0.059,8.3681640625,-11.451171875,2.9228515625
0.0595,7.046875,-11.53125,4.404296875
0.06,4.00390625,-11.2109375,7.1669921875
0.0605,1.7216796875,-10.2900390625,8.5283203125
0.061,-0.640625,-10.25,10.650390625
0.0615,-2.7626953125,-8.728515625,11.291015625
0.062,-4.00390625,-7.3671875,11.05078125
0.0625,-6.5263671875,-5.205078125,11.37109375
0.063,-8.8486328125,-2.5224609375,10.9306640625
0.0635,-10.25,-0.2001953125,9.9697265625
0.064,-12.171875,1.841796875,9.9697265625
0.0645,-12.1318359375,3.8837890625,7.8076171875
0.065,-12.0517578125,5.0849609375,6.5263671875
0.0655,-12.171875,7.8076171875,3.84375
0.066,-11.2509765625,9.2490234375,1.5615234375
0.0665,-10.7705078125,10.650390625,-0.400390625
0.067,-9.9296875,11.771484375,-2.482421875
0.0675,-7.6875,11.0107421875,-4.00390625
0.068,-6.1259765625,11.05078125,-5.6455078125
0.0685,-3.203125,10.7705078125,-8.2080078125
0.069,-1.0009765625,9.7294921875,-9.369140625
0.0695,1.0009765625,9.689453125,-11.2509765625
0.07,3.1630859375,8.087890625,-11.771484375
0.0705,4.484375,6.5263671875,-11.451171875
0.071,7.0869140625,4.1640625,-11.7314453125
0.0715,9.2490234375,1.5615234375,-11.1708984375
0.072,10.4501953125,-0.640625,-10.25
0.0725,12.091796875,-2.322265625,-10.2099609375
0.073,11.931640625,-4.3642578125,-8.0078125
0.0735,11.771484375,-5.765625,-6.486328125
0.074,11.9716796875,-8.328125,-3.9638671875
0.0745,10.8505859375,-9.5693359375,-1.6416015625
0.075,10.490234375,-10.7705078125,0.080078125
0.0755,9.44921875,-11.611328125,2.0419921875
0.076,7.1669921875,-10.890625,3.6435546875
0.0765,5.4052734375,-10.890625,5.4052734375
0.077,2.642578125,-10.6103515625,7.927734375
0.0775,0.560546875,-9.5693359375,8.96875
0.078,-1.28125,-9.5693359375,10.5703125
0.0785,-3.443359375,-7.767578125,10.9306640625
0.079,-4.96484375,-5.9658203125,10.6103515625
0.0795,-7.6474609375,-3.5634765625,10.890625
0.08,-9.6494140625,-1.0009765625,10.2099609375
0.0805,-10.5703125,0.9208984375,9.2490234375
0.081,-11.931640625,2.40234375,9.12890625
0.0815,-11.69140625,4.484375,6.7265625
0.082,-11.4111328125,6.0859375,4.9248046875
0.0825,-11.69140625,8.7685546875,2.5224609375
0.083,-10.3701171875,9.689453125,0.240234375
0.0835,-10.0498046875,10.73046875,-1.201171875
0.084,-8.80859375,11.3310546875,-3.1630859375
0.0845,-6.2861328125,10.5302734375,-4.8447265625
0.085,-4.4443359375,10.490234375,-6.7265625
0.0855,-1.76171875,10.2099609375,-9.12890625
0.086,0.2802734375,9.048828125,-9.849609375
0.0865,1.76171875,9.048828125,-11.2509765625
0.087,3.923828125,7.046875,-11.4912109375
0.0875,5.6455078125,5.0048828125,-11.05078125
0.088,8.328125,2.6025390625,-11.3310546875
0.0885,10.1298828125,-0.16015625,-10.41015625
0.089,10.8505859375,-1.681640625,-9.6494140625
0.0895,11.8916015625,-3.203125,-9.4091796875
0.09,11.611328125,-5.205078125,-6.7666015625
0.0905,11.291015625,-6.88671875,-4.8046875
0.091,11.53125,-9.4892578125,-2.4423828125
0.0915,10.0498046875,-10.08984375,-0.240234375
0.092,9.76953125,-10.890625,0.9609375
0.0925,8.2880859375,-11.2509765625,2.8828125
0.093,5.6455078125,-10.41015625,4.724609375
0.0935,3.68359375,-10.4501953125,6.646484375
0.094,1.041015625,-10.08984375,8.9287109375
0.0945,-0.80078125,-8.8486328125,9.44921875
0.095,-2.08203125,-8.8486328125,10.6103515625
0.0955,-4.32421875,-6.646484375,10.6904296875
0.096,-6.166015625,-4.404296875,10.25
0.0965,-9.0087890625,-1.9619140625,10.6103515625
0.097,-10.3701171875,0.6005859375,9.44921875
0.0975,-10.890625,1.76171875,8.7685546875
0.098,-11.8115234375,3.283203125,8.1279296875
0.0985,-11.37109375,5.525390625,5.4853515625
0.099,-11.0908203125,7.3271484375,3.36328125
0.0995,-11.2109375,9.76953125,1.0009765625
0.1,-9.6494140625,10.1298828125,-1.041015625
0.1005,-9.4091796875,10.7705078125,-1.9619140625
0.101,-7.5673828125,10.890625,-3.923828125
0.1015,-4.9248046875,10.1298828125,-5.845703125
0.102,-2.8427734375,10.169921875,-8.0078125
0.1025,-0.2802734375,9.609375,-10.009765625
0.103,1.4013671875,8.48828125,-10.41015625
0.1035,2.5224609375,8.248046875,-11.2509765625
0.104,4.9248046875,5.8857421875,-11.2509765625
0.1045,6.8466796875,3.5634765625,-10.8505859375
0.105,9.6494140625,0.9609375,-11.0107421875
0.1055,10.810546875,-1.361328125,-9.8896484375
0.106,11.2109375,-2.322265625,-9.2890625
0.1065,11.8115234375,-4.00390625,-8.248046875
0.107,11.4111328125,-6.2861328125,-5.525390625
0.1075,11.1708984375,-8.2080078125,-3.3232421875
0.108,11.130859375,-10.5302734375,-0.9208984375
0.1085,9.529296875,-10.6103515625,0.9609375
0.109,9.12890625,-11.05078125,1.76171875
0.1095,7.0068359375,-11.05078125,3.9638671875
0.11,4.32421875,-10.330078125,5.92578125
0.1105,2.001953125,-10.330078125,8.248046875
0.111,-0.5205078125,-9.6494140625,10.009765625
0.1115,-1.8818359375,-8.48828125,10.1298828125
0.112,-3.0830078125,-7.927734375,10.7705078125
0.1125,-5.845703125,-5.28515625,10.810546875
0.113,-7.6875,-3.0029296875,10.2099609375
0.1135,-10.41015625,-0.3603515625,10.2900390625
0.114,-11.291015625,1.841796875,9.0888671875
0.1145,-11.4111328125,2.8427734375,8.248046875
0.115,-11.9716796875,4.8046875,6.7666015625
0.1155,-11.4912109375,7.0869140625,4.00390625
0.116,-11.05078125,8.80859375,1.841796875
0.1165,-10.890625,10.9306640625,-0.6005859375
0.117,-9.12890625,10.8505859375,-2.2822265625
0.1175,-8.48828125,10.9306640625,-3.0830078125
0.118,-5.9658203125,10.9306640625,-5.6455078125
0.1185,-3.4833984375,10.169921875,-7.4072265625
0.119,-1.0009765625,10.009765625,-9.6494140625
0.1195,1.3212890625,9.2490234375,-11.0908203125
0.12,2.5625,7.9677734375,-11.05078125
0.1205,3.9638671875,7.046875,-11.451171875
0.121,6.7666015625,4.1240234375,-11.451171875
0.1215,8.3681640625,1.8818359375,-10.6904296875
0.122,10.8505859375,-0.560546875,-10.73046875
0.1225,11.53125,-2.5224609375,-9.4091796875
0.123,11.53125,-3.5634765625,-8.328125
0.1235,11.8515625,-5.7255859375,-6.5263671875
0.124,11.37109375,-7.767578125,-3.9638671875
0.1245,10.8505859375,-9.2490234375,-1.9619140625
0.125,10.6103515625,-11.0908203125,0.3203125
0.1255,8.7685546875,-10.8505859375,1.921875
0.126,7.84765625,-10.8505859375,2.8427734375
0.1265,5.2451171875,-10.810546875,5.4853515625
0.127,2.8828125,-10.009765625,7.046875
0.1275,0.640625,-9.8896484375,9.0888671875
0.128,-1.5615234375,-9.048828125,10.3701171875
0.1285,-2.72265625,-7.767578125,10.2099609375
0.129,-4.484375,-6.4462890625,10.5302734375
0.1295,-7.126953125,-3.763671875,10.490234375
0.13,-8.6083984375,-1.521484375,9.6494140625
0.1305,-10.73046875,0.640625,9.7294921875
0.131,-11.2509765625,2.6025390625,8.2880859375
0.1315,-11.2109375,3.68359375,7.1669921875
0.132,-11.451171875,6.005859375,5.0849609375
0.1325,-10.970703125,7.8076171875,2.7626953125
0.133,-10.3701171875,9.0888671875,0.880859375
0.1335,-10.1298828125,10.73046875,-1.1611328125
0.134,-8.2080078125,10.330078125,-2.72265625
0.1345,-7.0869140625,10.330078125,-3.84375
0.135,-4.484375,10.25,-6.4462890625
0.1355,-2.2822265625,9.529296875,-7.8876953125
0.136,-0.2802734375,9.4091796875,-9.76953125
0.1365,1.841796875,8.48828125,-10.810546875
0.137,3.123046875,7.046875,-10.650390625
0.1375,5.0849609375,5.4052734375,-10.9306640625
0.138,7.607421875,2.8427734375,-10.890625
0.1385,8.96875,0.640625,-9.9697265625
0.139,10.8505859375,-1.1611328125,-10.1298828125
0.1395,11.1708984375,-3.0830078125,-8.48828125
0.14,11.05078125,-4.244140625,-7.20703125
0.1405,11.291015625,-6.646484375,-5.0849609375
0.141,10.7705078125,-8.328125,-2.7626953125
0.1415,10.169921875,-9.4091796875,-1.041015625
0.142,9.76953125,-10.810546875,0.80078125
0.1425,7.6875,-10.330078125,2.5224609375
0.143,6.326171875,-10.2900390625,3.84375
0.1435,3.84375,-10.2900390625,6.40625
0.144,1.5615234375,-9.44921875,7.7275390625
0.1445,-0.2001953125,-9.369140625,9.3291015625
0.145,-2.2421875,-8.328125,10.2099609375
0.1455,-3.7236328125,-6.6865234375,10.009765625
0.146,-5.92578125,-4.6845703125,10.2099609375
0.1465,-8.328125,-2.2021484375,10.1298828125
0.147,-9.4091796875,0.0400390625,9.048828125
0.1475,-11.05078125,1.44140625,9.2490234375
0.148,-11.2109375,3.4833984375,7.3671875
0.1485,-10.9306640625,4.8447265625,5.7255859375
0.149,-11.2509765625,7.3271484375,3.5634765625
0.1495,-10.490234375,8.80859375,1.201171875
0.15,-9.76953125,9.6494140625,-0.400390625
0.1505,-9.3291015625,10.810546875,-2.08203125
0.151,-7.0068359375,10.2099609375,-3.84375
0.1515,-5.365234375,10.0498046875,-5.3251953125
0.152,-2.8828125,10.08984375,-7.84765625
0.1525,-0.640625,8.96875,-8.96875
0.153,0.9208984375,8.96875,-10.330078125
0.1535,2.8828125,7.607421875,-11.0107421875
0.154,4.484375,5.685546875,-10.73046875
0.1545,6.88671875,3.603515625,-10.8505859375
0.155,9.12890625,1.041015625,-10.5302734375
0.1555,9.9296875,-0.9609375,-9.369140625
0.156,11.291015625,-2.08203125,-9.609375
0.1565,11.2509765625,-4.1640625,-7.447265625
0.157,10.890625,-5.7255859375,-5.60546875
0.1575,11.2109375,-8.16796875,-3.443359375
0.158,10.2099609375,-9.4091796875,-1.12109375
0.1585,9.609375,-10.009765625,0.2802734375
0.159,8.8486328125,-10.890625,1.8818359375
0.1595,6.40625,-10.2099609375,3.68359375
0.16,4.6044921875,-10.009765625,5.3251953125
0.1605,2.2021484375,-10.08984375,7.8076171875
0.161,0.080078125,-8.888671875,8.6083984375
0.1615,-1.2412109375,-8.9287109375,9.849609375
0.162,-3.283203125,-7.3271484375,10.2099609375
0.1625,-5.0048828125,-5.28515625,9.9296875
0.163,-7.4873046875,-3.0029296875,10.1298828125
0.1635,-9.4892578125,-0.5205078125,9.609375
0.164,-10.0498046875,1.1611328125,8.568359375
0.1645,-11.2109375,2.2822265625,8.568359375
0.165,-11.05078125,4.404296875,6.24609375
0.1655,-10.73046875,6.0859375,4.244140625
0.166,-11.0107421875,8.568359375,2.0419921875
0.1665,-9.76953125,9.44921875,-0.2001953125
0.167,-9.2890625,10.009765625,-1.28125
0.1675,-8.248046875,10.5302734375,-2.8828125
0.168,-5.7255859375,9.8896484375,-4.8046875
0.1685,-3.84375,9.76953125,-6.56640625
0.169,-1.4013671875,9.609375,-8.9287109375
0.1695,0.6005859375,8.3681640625,-9.4892578125
0.17,1.6416015625,8.408203125,-10.6103515625
0.1705,3.763671875,6.56640625,-10.8505859375
0.171,5.60546875,4.484375,-10.4501953125
0.1715,8.248046875,2.0419921875,-10.6103515625
0.172,9.9697265625,-0.4404296875,-9.9697265625
0.1725,10.3701171875,-1.681640625,-9.0888671875
0.173,11.2509765625,-2.8828125,-8.80859375
0.1735,11.05078125,-5.125,-6.2861328125
0.174,10.73046875,-6.8466796875,-4.244140625
0.1745,10.970703125,-9.2890625,-2.001953125
0.175,9.609375,-9.9296875,0.1201171875
0.1755,9.1689453125,-10.2900390625,0.9609375
0.176,7.767578125,-10.6103515625,2.72265625
0.1765,5.1650390625,-9.9697265625,4.724609375
0.177,3.04296875,-9.9296875,6.7265625
0.1775,0.640625,-9.689453125,8.888671875
0.178,-1.1611328125,-8.4482421875,9.2490234375
0.1785,-2.08203125,-8.2880859375,10.08984375
0.179,-4.404296875,-6.166015625,10.2099609375
0.1795,-6.2861328125,-3.923828125,9.849609375
0.18,-8.96875,-1.4013671875,9.9697265625
0.1805,-10.330078125,0.9208984375,9.0888671875
0.181,-10.5703125,1.9619140625,8.248046875
0.1815,-11.2509765625,3.4033203125,7.52734375
0.182,-10.970703125,5.7255859375,4.8447265625
0.1825,-10.6103515625,7.447265625,2.802734375
0.183,-10.650390625,9.7294921875,0.5205078125
0.1835,-9.208984375,10.009765625,-1.361328125
0.184,-8.6884765625,10.25,-2.1220703125
0.1845,-6.9267578125,10.3701171875,-4.0439453125
0.185,-4.3642578125,9.6494140625,-6.005859375
0.1855,-2.1220703125,9.609375,-8.16796875
0.186,0.2001953125,9.12890625,-9.9697265625
0.1865,1.6015625,7.9677734375,-10.08984375
0.187,2.5625,7.607421875,-10.650390625
0.1875,5.0849609375,5.205078125,-10.7705078125
0.188,6.8466796875,3.04296875,-10.2900390625
0.1885,9.44921875,0.6005859375,-10.330078125
0.189,10.490234375,-1.4814453125,-9.44921875
0.1895,10.650390625,-2.482421875,-8.5283203125
0.19,11.130859375,-4.1240234375,-7.4072265625
0.1905,10.8505859375,-6.2861328125,-4.884765625
0.191,10.490234375,-7.8876953125,-2.9228515625
0.1915,10.41015625,-9.9697265625,-0.80078125
0.192,8.9287109375,-10.009765625,0.9609375
0.1925,8.2880859375,-10.169921875,1.681640625
0.193,6.2060546875,-10.25,3.84375
0.1935,3.8837890625,-9.6494140625,5.5654296875
0.194,1.6416015625,-9.609375,7.7275390625
0.1945,-0.5205078125,-8.96875,9.2490234375
0.195,-1.681640625,-7.8876953125,9.2890625
0.1955,-2.8828125,-7.1669921875,9.76953125
0.196,-5.4853515625,-4.6845703125,9.849609375
0.1965,-7.0869140625,-2.6826171875,9.4091796875
0.197,-9.44921875,-0.4404296875,9.44921875
0.1975,-10.25,1.521484375,8.3681640625
0.198,-10.3701171875,2.5224609375,7.52734375
0.1985,-10.7705078125,4.404296875,5.9658203125
0.199,-10.41015625,6.3662109375,3.68359375
0.1995,-10.08984375,7.84765625,1.841796875
0.2,-9.9697265625,9.6494140625,-0.240234375
0.2005,-8.408203125,9.609375,-1.681640625
0.201,-7.7275390625,9.6494140625,-2.5625
0.2015,-5.4052734375,9.609375,-4.884765625
0.202,-3.36328125,9.0888671875,-6.486328125
0.2025,-1.2412109375,9.0888671875,-8.5283203125
0.203,0.80078125,8.4482421875,-9.7294921875
0.2035,1.921875,7.447265625,-9.76953125
0.204,3.443359375,6.326171875,-10.2099609375
0.2045,5.8857421875,3.8837890625,-10.25
0.205,7.4873046875,1.841796875,-9.689453125
0.2055,9.5693359375,0.0,-9.8095703125
0.206,10.169921875,-1.921875,-8.6484375
0.2065,10.2900390625,-2.9228515625,-7.767578125
0.207,10.5703125,-5.0849609375,-5.92578125
0.2075,10.25,-6.7666015625,-3.84375
0.208,9.9296875,-8.2080078125,-2.0419921875
0.2085,9.689453125,-9.7294921875,-0.2802734375
0.209,8.0478515625,-9.5693359375,1.28125
0.2095,7.1669921875,-9.689453125,2.3623046875
0.21,4.724609375,-9.689453125,4.724609375
0.2105,2.802734375,-9.12890625,6.24609375
0.211,0.880859375,-9.12890625,8.16796875
0.2115,-1.12109375,-8.328125,9.1689453125
0.212,-2.2822265625,-7.20703125,9.1689453125
0.2125,-4.2041015625,-5.6455078125,9.5693359375
0.213,-6.56640625,-3.36328125,9.609375
0.2135,-8.0078125,-1.28125,8.9287109375
0.214,-9.8095703125,0.400390625,9.0888671875
0.2145,-10.25,2.2822265625,7.6474609375
0.215,-10.2900390625,3.4033203125,6.5263671875
0.2155,-10.5703125,5.7255859375,4.484375
0.216,-10.169921875,7.3671875,2.40234375
0.2165,-9.689453125,8.568359375,0.7607421875
0.217,-9.369140625,9.8095703125,-1.041015625
0.2175,-7.52734375,9.529296875,-2.6025390625
0.218,-6.2861328125,9.529296875,-3.9638671875
0.2185,-3.84375,9.609375,-6.3662109375
0.219,-1.8818359375,8.9287109375,-7.6875
0.2195,-0.16015625,8.888671875,-9.3291015625
0.22,1.8017578125,7.8876953125,-10.2099609375
0.2205,3.203125,6.4462890625,-10.1298828125
0.221,5.4052734375,4.564453125,-10.41015625
0.2215,7.7275390625,2.2021484375,-10.2900390625
0.222,8.9287109375,0.16015625,-9.369140625
0.2225,10.5302734375,-1.28125,-9.6494140625
0.223,10.73046875,-3.203125,-7.8876953125
0.2235,10.5703125,-4.564453125,-6.40625
0.224,10.8505859375,-6.966796875,-4.2841796875
0.2245,10.25,-8.48828125,-2.08203125
0.225,9.609375,-9.4091796875,-0.6005859375
