wavelength,x,y,z
0.0,-3.86376953125,-3.98388671875,6.38623046875
0.0005,-4.82470703125,-2.62255859375,6.14599609375
0.001,-5.30517578125,-1.62158203125,5.90576171875
0.0015,-5.62548828125,-0.82080078125,5.70556640625
0.002,-5.86572265625,0.14013671875,5.46533203125
0.0025,-5.94580078125,1.30126953125,4.66455078125
0.003,-5.54541015625,2.54248046875,3.34326171875
0.0035,-4.98486328125,3.62353515625,1.86181640625
0.004,-4.54443359375,4.26416015625,0.98095703125
0.0045,-4.18408203125,4.86474609375,0.14013671875
0.005,-3.86376953125,5.54541015625,-0.82080078125
0.0055,-2.22216796875,5.58544921875,-2.42236328125
0.006,-0.90087890625,5.42529296875,-3.70361328125
0.0065,0.14013671875,5.38525390625,-4.50439453125
0.007,0.86083984375,5.30517578125,-5.26513671875
0.0075,1.90185546875,5.02490234375,-6.14599609375
0.008,3.02294921875,4.42431640625,-6.82666015625
0.0085,4.22412109375,2.82275390625,-6.74658203125
0.009,5.10498046875,1.22119140625,-6.34619140625
0.0095,5.38525390625,0.30029296875,-6.10595703125
0.01,5.62548828125,-0.62060546875,-5.78564453125
0.0105,5.86572265625,-1.46142578125,-5.46533203125
0.011,5.58544921875,-2.98291015625,-3.90380859375
0.0115,5.10498046875,-4.10400390625,-2.54248046875
0.012,4.54443359375,-4.94482421875,-1.34130859375
0.0125,4.10400390625,-5.50537109375,-0.46044921875
0.013,3.54345703125,-6.10595703125,0.58056640625
0.0135,2.86279296875,-6.54638671875,1.66162109375
0.014,1.14111328125,-6.42626953125,3.22314453125
0.0145,-0.34033203125,-6.10595703125,4.38427734375
0.015,-1.10107421875,-6.06591796875,5.06494140625
0.0155,-1.90185546875,-5.90576171875,5.78564453125
0.016,-2.94287109375,-5.50537109375,6.70654296875
0.0165,-4.34423828125,-4.14404296875,6.90673828125
0.017,-5.26513671875,-2.70263671875,6.70654296875
0.0175,-5.90576171875,-1.34130859375,6.26611328125
0.018,-6.06591796875,-0.42041015625,5.90576171875
0.0185,-6.26611328125,0.58056640625,5.54541015625
0.019,-6.42626953125,1.54150390625,5.06494140625
0.0195,-5.90576171875,3.02294921875,3.30322265625
0.02,-5.26513671875,4.14404296875,1.70166015625
0.0205,-4.70458984375,4.78466796875,0.74072265625
0.021,-4.18408203125,5.26513671875,-0.22021484375
0.0215,-3.62353515625,5.82568359375,-1.22119140625
0.022,-2.26220703125,6.06591796875,-2.70263671875
0.0225,-0.82080078125,5.86572265625,-4.02392578125
0.023,0.50048828125,5.54541015625,-4.98486328125
0.0235,1.22119140625,5.42529296875,-5.62548828125
0.024,2.06201171875,5.14501953125,-6.38623046875
0.0245,3.06298828125,4.78466796875,-7.22705078125
0.025,4.50439453125,2.90283203125,-7.10693359375
0.0255,5.34521484375,1.30126953125,-6.74658203125
0.026,5.74560546875,0.30029296875,-6.34619140625
0.0265,5.90576171875,-0.66064453125,-5.98583984375
0.027,6.06591796875,-1.62158203125,-5.50537109375
0.0275,5.98583984375,-2.90283203125,-4.46435546875
0.028,5.46533203125,-4.10400390625,-2.98291015625
0.0285,4.74462890625,-5.14501953125,-1.42138671875
0.029,4.18408203125,-5.74560546875,-0.46044921875
0.0295,3.70361328125,-6.18603515625,0.50048828125
0.03,3.22314453125,-6.78662109375,1.42138671875
0.0305,1.34130859375,-6.70654296875,3.18310546875
0.031,-0.14013671875,-6.42626953125,4.34423828125
0.0315,-1.10107421875,-6.18603515625,5.10498046875
0.032,-1.78173828125,-6.06591796875,5.78564453125
0.0325,-2.82275390625,-5.70556640625,6.58642578125
0.033,-3.94384765625,-4.94482421875,7.18701171875
0.0335,-5.14501953125,-3.26318359375,7.02685546875
0.034,-5.90576171875,-1.58154296875,6.46630859375
0.0345,-6.18603515625,-0.62060546875,6.10595703125
0.035,-6.30615234375,0.30029296875,5.74560546875
0.0355,-6.50634765625,1.18115234375,5.42529296875
0.036,-6.10595703125,2.74267578125,3.70361328125
0.0365,-5.58544921875,3.82373046875,2.38232421875
0.037,-4.98486328125,4.62451171875,1.06103515625
0.0375,-4.42431640625,5.22509765625,0.14013671875
0.038,-3.86376953125,5.70556640625,-0.90087890625
0.0385,-3.14306640625,6.22607421875,-2.02197265625
0.039,-1.38134765625,6.02587890625,-3.54345703125
0.0395,0.18017578125,5.66552734375,-4.74462890625
0.04,0.94091796875,5.54541015625,-5.42529296875
0.0405,1.66162109375,5.38525390625,-6.10595703125
0.041,2.70263671875,4.98486328125,-6.98681640625
0.0415,4.14404296875,3.50341796875,-7.22705078125
0.042,5.06494140625,2.10205078125,-7.02685546875
0.0425,5.66552734375,0.62060546875,-6.46630859375
0.043,5.90576171875,-0.34033203125,-6.10595703125
0.0435,6.02587890625,-1.22119140625,-5.74560546875
0.044,6.22607421875,-2.14208984375,-5.34521484375
0.0445,5.62548828125,-3.66357421875,-3.54345703125
0.045,4.98486328125,-4.82470703125,-1.86181640625
0.0455,4.46435546875,-5.46533203125,-0.86083984375
0.046,3.98388671875,-6.02587890625,0.14013671875
0.0465,3.42333984375,-6.58642578125,1.10107421875
0.047,2.06201171875,-6.82666015625,2.58251953125
0.0475,0.62060546875,-6.62646484375,3.86376953125
0.048,-0.82080078125,-6.26611328125,4.90478515625
0.0485,-1.50146484375,-6.18603515625,5.58544921875
0.049,-2.38232421875,-5.94580078125,6.30615234375
0.0495,-3.38330078125,-5.62548828125,7.18701171875
0.05,-4.90478515625,-3.66357421875,7.06689453125
0.0505,-5.78564453125,-2.06201171875,6.70654296875
0.051,-6.10595703125,-0.98095703125,6.30615234375
0.0515,-6.34619140625,0.02001953125,5.94580078125
0.052,-6.46630859375,0.98095703125,5.50537109375
0.0525,-6.42626953125,2.26220703125,4.46435546875
0.053,-5.90576171875,3.46337890625,2.98291015625
0.0535,-5.14501953125,4.54443359375,1.30126953125
0.054,-4.58447265625,5.10498046875,0.34033203125
0.0545,-4.06396484375,5.58544921875,-0.62060546875
0.055,-3.58349609375,6.22607421875,-1.54150390625
0.0555,-1.70166015625,6.06591796875,-3.26318359375
0.056,-0.30029296875,5.78564453125,-4.50439453125
0.0565,0.78076171875,5.50537109375,-5.26513671875
0.057,1.50146484375,5.38525390625,-5.94580078125
0.0575,2.50244140625,4.94482421875,-6.74658203125
0.058,3.58349609375,4.34423828125,-7.34716796875
0.0585,4.78466796875,2.62255859375,-7.10693359375
0.059,5.58544921875,0.90087890625,-6.54638671875
0.0595,5.74560546875,0.02001953125,-6.14599609375
0.06,5.90576171875,-0.94091796875,-5.82568359375
0.0605,6.10595703125,-1.78173828125,-5.50537109375
0.061,5.70556640625,-3.26318359375,-3.86376953125
0.0615,5.18505859375,-4.34423828125,-2.46240234375
0.062,4.54443359375,-5.14501953125,-1.22119140625
0.0625,4.02392578125,-5.74560546875,-0.30029296875
0.063,3.54345703125,-6.26611328125,0.70068359375
0.0635,2.86279296875,-6.74658203125,1.74169921875
0.064,1.14111328125,-6.50634765625,3.18310546875
0.0645,-0.38037109375,-6.22607421875,4.38427734375
0.065,-1.14111328125,-6.10595703125,5.02490234375
0.0655,-1.86181640625,-6.02587890625,5.74560546875
0.066,-2.82275390625,-5.70556640625,6.62646484375
0.0665,-4.14404296875,-4.34423828125,6.86669921875
0.067,-5.06494140625,-2.94287109375,6.66650390625
0.0675,-5.70556640625,-1.54150390625,6.22607421875
0.068,-5.90576171875,-0.70068359375,5.90576171875
0.0685,-6.10595703125,0.18017578125,5.66552734375
0.069,-6.38623046875,0.98095703125,5.42529296875
0.0695,-5.82568359375,2.42236328125,3.70361328125
0.07,-5.22509765625,3.58349609375,2.18212890625
0.0705,-4.74462890625,4.26416015625,1.18115234375
0.071,-4.38427734375,4.94482421875,0.30029296875
0.0715,-3.94384765625,5.54541015625,-0.70068359375
0.072,-2.86279296875,5.86572265625,-1.98193359375
0.0725,-1.42138671875,5.70556640625,-3.26318359375
0.073,-0.18017578125,5.38525390625,-4.34423828125
0.0735,0.62060546875,5.34521484375,-5.06494140625
0.074,1.46142578125,5.30517578125,-5.86572265625
0.0745,2.34228515625,5.18505859375,-6.78662109375
0.075,3.82373046875,3.46337890625,-6.74658203125
0.0755,4.74462890625,1.94189453125,-6.46630859375
0.076,5.18505859375,0.86083984375,-6.18603515625
0.0765,5.50537109375,0.02001953125,-5.94580078125
0.077,5.74560546875,-0.94091796875,-5.66552734375
0.0775,5.74560546875,-2.02197265625,-4.94482421875
0.078,5.30517578125,-3.18310546875,-3.54345703125
0.0785,4.74462890625,-4.30419921875,-2.02197265625
0.079,4.26416015625,-4.94482421875,-1.10107421875
0.0795,3.90380859375,-5.54541015625,-0.30029296875
0.08,3.66357421875,-6.26611328125,0.62060546875
0.0805,1.98193359375,-6.26611328125,2.18212890625
0.081,0.66064453125,-6.10595703125,3.34326171875
0.0815,-0.38037109375,-5.94580078125,4.18408203125
0.082,-1.10107421875,-5.90576171875,4.98486328125
0.0825,-1.98193359375,-5.74560546875,5.82568359375
0.083,-3.02294921875,-5.26513671875,6.54638671875
0.0835,-4.18408203125,-3.74365234375,6.46630859375
0.084,-5.06494140625,-2.22216796875,6.06591796875
0.0845,-5.42529296875,-1.30126953125,5.82568359375
0.085,-5.74560546875,-0.62060546875,5.70556640625
0.0855,-6.06591796875,0.30029296875,5.58544921875
0.086,-5.74560546875,1.58154296875,4.18408203125
0.0865,-5.38525390625,2.70263671875,2.98291015625
0.087,-4.82470703125,3.58349609375,1.78173828125
0.0875,-4.50439453125,4.26416015625,0.90087890625
0.088,-4.14404296875,4.90478515625,0.06005859375
0.0885,-3.70361328125,5.46533203125,-0.98095703125
0.089,-2.18212890625,5.38525390625,-2.30224609375
0.0895,-0.82080078125,5.14501953125,-3.54345703125
0.09,0.06005859375,5.18505859375,-4.26416015625
0.0905,0.78076171875,5.26513671875,-5.10498046875
0.091,1.66162109375,5.14501953125,-6.02587890625
0.0915,2.90283203125,4.02392578125,-6.38623046875
0.092,3.86376953125,2.78271484375,-6.30615234375
0.0925,4.58447265625,1.46142578125,-5.98583984375
0.093,4.94482421875,0.66064453125,-5.82568359375
0.0935,5.30517578125,-0.22021484375,-5.70556640625
0.094,5.62548828125,-0.98095703125,-5.62548828125
0.0945,5.18505859375,-2.22216796875,-4.14404296875
0.095,4.70458984375,-3.34326171875,-2.74267578125
0.0955,4.34423828125,-4.10400390625,-1.78173828125
0.096,4.14404296875,-4.82470703125,-1.02099609375
0.0965,3.86376953125,-5.62548828125,-0.18017578125
0.097,2.90283203125,-5.98583984375,1.10107421875
0.0975,1.62158203125,-5.94580078125,2.26220703125
0.098,0.46044921875,-5.74560546875,3.34326171875
0.0985,-0.34033203125,-5.78564453125,4.14404296875
0.099,-1.14111328125,-5.82568359375,5.02490234375
0.0995,-1.94189453125,-5.86572265625,5.98583984375
0.1,-3.34326171875,-4.38427734375,6.06591796875
0.1005,-4.26416015625,-3.02294921875,5.90576171875
0.101,-4.82470703125,-2.06201171875,5.74560546875
0.1015,-5.18505859375,-1.30126953125,5.66552734375
0.102,-5.62548828125,-0.54052734375,5.58544921875
0.1025,-5.74560546875,0.58056640625,4.98486328125
0.103,-5.38525390625,1.62158203125,3.86376953125
0.1035,-4.86474609375,2.70263671875,2.50244140625
0.104,-4.54443359375,3.46337890625,1.58154296875
0.1045,-4.34423828125,4.14404296875,0.78076171875
0.105,-4.22412109375,4.94482421875,0.06005859375
0.1055,-2.94287109375,5.02490234375,-1.42138671875
0.106,-1.66162109375,5.06494140625,-2.54248046875
0.1065,-0.82080078125,5.06494140625,-3.38330078125
0.107,0.02001953125,5.14501953125,-4.26416015625
0.1075,0.86083984375,5.14501953125,-5.18505859375
0.108,1.82177734375,4.82470703125,-5.94580078125
0.1085,2.94287109375,3.54345703125,-6.06591796875
0.109,3.86376953125,2.10205078125,-5.74560546875
0.1095,4.42431640625,1.30126953125,-5.70556640625
0.11,4.82470703125,0.58056640625,-5.66552734375
0.1105,5.22509765625,-0.26025390625,-5.70556640625
0.111,5.10498046875,-1.42138671875,-4.62451171875
0.1115,4.78466796875,-2.42236328125,-3.54345703125
0.112,4.46435546875,-3.34326171875,-2.50244140625
0.1125,4.22412109375,-4.14404296875,-1.66162109375
0.113,4.02392578125,-4.90478515625,-0.90087890625
0.1135,3.66357421875,-5.62548828125,0.06005859375
0.114,2.42236328125,-5.62548828125,1.30126953125
0.1145,1.18115234375,-5.54541015625,2.50244140625
0.115,0.50048828125,-5.70556640625,3.34326171875
0.1155,-0.38037109375,-5.82568359375,4.22412109375
0.116,-1.26123046875,-5.90576171875,5.26513671875
0.1165,-2.50244140625,-4.98486328125,5.70556640625
0.117,-3.46337890625,-3.86376953125,5.78564453125
0.1175,-4.22412109375,-2.66259765625,5.62548828125
0.118,-4.78466796875,-1.86181640625,5.58544921875
0.1185,-5.22509765625,-1.14111328125,5.62548828125
0.119,-5.66552734375,-0.38037109375,5.58544921875
0.1195,-5.38525390625,0.94091796875,4.38427734375
0.12,-4.98486328125,2.06201171875,3.06298828125
0.1205,-4.74462890625,2.86279296875,2.18212890625
0.121,-4.54443359375,3.62353515625,1.38134765625
0.1215,-4.42431640625,4.42431640625,0.50048828125
0.122,-3.54345703125,4.94482421875,-0.74072265625
0.1225,-2.42236328125,5.06494140625,-1.90185546875
0.123,-1.26123046875,4.98486328125,-2.94287109375
0.1235,-0.58056640625,5.10498046875,-3.82373046875
0.124,0.34033203125,5.22509765625,-4.74462890625
0.1245,1.22119140625,5.26513671875,-5.74560546875
0.125,2.58251953125,3.90380859375,-5.90576171875
0.1255,3.58349609375,2.58251953125,-5.82568359375
0.126,4.18408203125,1.58154296875,-5.74560546875
0.1265,4.62451171875,0.86083984375,-5.70556640625
0.127,5.10498046875,0.06005859375,-5.62548828125
0.1275,5.22509765625,-1.06103515625,-5.06494140625
0.128,4.98486328125,-2.10205078125,-3.98388671875
0.1285,4.54443359375,-3.26318359375,-2.62255859375
0.129,4.22412109375,-4.06396484375,-1.74169921875
0.1295,4.02392578125,-4.82470703125,-0.98095703125
0.13,3.90380859375,-5.58544921875,-0.22021484375
0.1305,2.58251953125,-5.70556640625,1.30126953125
0.131,1.34130859375,-5.70556640625,2.46240234375
0.1315,0.50048828125,-5.70556640625,3.34326171875
0.132,-0.34033203125,-5.82568359375,4.22412109375
0.1325,-1.26123046875,-5.78564453125,5.18505859375
0.133,-2.30224609375,-5.34521484375,5.94580078125
0.1335,-3.46337890625,-4.06396484375,6.02587890625
0.134,-4.42431640625,-2.58251953125,5.74560546875
0.1345,-4.86474609375,-1.74169921875,5.62548828125
0.135,-5.26513671875,-1.02099609375,5.58544921875
0.1355,-5.74560546875,-0.30029296875,5.58544921875
0.136,-5.50537109375,1.18115234375,4.34423828125
0.1365,-5.18505859375,2.18212890625,3.18310546875
0.137,-4.82470703125,3.06298828125,2.10205078125
0.1375,-4.50439453125,3.82373046875,1.22119140625
0.138,-4.18408203125,4.54443359375,0.34033203125
0.1385,-3.78369140625,5.18505859375,-0.66064453125
0.139,-2.42236328125,5.22509765625,-1.98193359375
0.1395,-1.10107421875,5.10498046875,-3.18310546875
0.14,-0.38037109375,5.10498046875,-3.94384765625
0.1405,0.46044921875,5.22509765625,-4.82470703125
0.141,1.42138671875,5.14501953125,-5.82568359375
0.1415,2.74267578125,3.98388671875,-6.14599609375
0.142,3.70361328125,2.82275390625,-6.18603515625
0.1425,4.46435546875,1.50146484375,-5.90576171875
0.143,4.82470703125,0.70068359375,-5.74560546875
0.1435,5.14501953125,-0.18017578125,-5.62548828125
0.144,5.54541015625,-0.98095703125,-5.46533203125
0.1445,5.14501953125,-2.34228515625,-4.06396484375
0.145,4.66455078125,-3.50341796875,-2.62255859375
0.1455,4.34423828125,-4.22412109375,-1.78173828125
0.146,4.10400390625,-4.86474609375,-0.94091796875
0.1465,3.78369140625,-5.62548828125,0.02001953125
0.147,2.70263671875,-5.94580078125,1.34130859375
0.1475,1.50146484375,-5.90576171875,2.50244140625
0.148,0.30029296875,-5.78564453125,3.54345703125
0.1485,-0.46044921875,-5.82568359375,4.34423828125
0.149,-1.30126953125,-5.78564453125,5.18505859375
0.1495,-2.26220703125,-5.74560546875,6.18603515625
0.15,-3.70361328125,-4.10400390625,6.26611328125
0.1505,-4.58447265625,-2.70263671875,6.06591796875
0.151,-5.10498046875,-1.74169921875,5.82568359375
0.1515,-5.42529296875,-0.98095703125,5.70556640625
0.152,-5.74560546875,0.02001953125,5.46533203125
0.1525,-5.82568359375,1.10107421875,4.70458984375
0.153,-5.50537109375,2.22216796875,3.50341796875
0.1535,-4.98486328125,3.34326171875,1.98193359375
0.154,-4.58447265625,4.02392578125,1.14111328125
0.1545,-4.26416015625,4.66455078125,0.30029296875
0.155,-3.98388671875,5.42529296875,-0.62060546875
0.1555,-2.38232421875,5.46533203125,-2.22216796875
0.156,-1.10107421875,5.42529296875,-3.46337890625
0.1565,-0.22021484375,5.34521484375,-4.30419921875
0.157,0.62060546875,5.34521484375,-5.10498046875
0.1575,1.62158203125,5.10498046875,-5.98583984375
0.158,2.82275390625,4.50439453125,-6.70654296875
0.1585,3.98388671875,2.94287109375,-6.66650390625
0.159,4.94482421875,1.34130859375,-6.26611328125
0.1595,5.26513671875,0.50048828125,-6.02587890625
0.16,5.54541015625,-0.42041015625,-5.78564453125
0.1605,5.86572265625,-1.38134765625,-5.54541015625
0.161,5.54541015625,-2.90283203125,-3.98388671875
0.1615,5.10498046875,-4.02392578125,-2.70263671875
0.162,4.62451171875,-4.82470703125,-1.46142578125
0.1625,4.14404296875,-5.42529296875,-0.58056640625
0.163,3.66357421875,-6.02587890625,0.46044921875
0.1635,2.90283203125,-6.58642578125,1.62158203125
0.164,1.22119140625,-6.42626953125,3.18310546875
0.1645,-0.26025390625,-6.18603515625,4.34423828125
0.165,-0.98095703125,-6.10595703125,4.98486328125
0.1655,-1.78173828125,-5.94580078125,5.78564453125
0.166,-2.90283203125,-5.54541015625,6.70654296875
0.1665,-4.38427734375,-4.06396484375,6.94677734375
0.167,-5.26513671875,-2.70263671875,6.74658203125
0.1675,-5.86572265625,-1.26123046875,6.26611328125
0.168,-6.02587890625,-0.46044921875,5.90576171875
0.1685,-6.22607421875,0.50048828125,5.50537109375
0.169,-6.42626953125,1.58154296875,5.02490234375
0.1695,-5.90576171875,3.06298828125,3.18310546875
0.17,-5.26513671875,4.22412109375,1.66162109375
0.1705,-4.70458984375,4.82470703125,0.70068359375
0.171,-4.18408203125,5.30517578125,-0.30029296875
0.1715,-3.58349609375,5.82568359375,-1.26123046875
0.172,-2.18212890625,6.10595703125,-2.86279296875
0.1725,-0.78076171875,5.90576171875,-4.10400390625
0.173,0.54052734375,5.54541015625,-5.02490234375
0.1735,1.22119140625,5.42529296875,-5.62548828125
0.174,2.06201171875,5.10498046875,-6.38623046875
0.1745,3.10302734375,4.78466796875,-7.22705078125
0.175,4.54443359375,2.86279296875,-7.06689453125
0.1755,5.38525390625,1.30126953125,-6.70654296875
0.176,5.74560546875,0.26025390625,-6.30615234375
0.1765,5.82568359375,-0.70068359375,-5.94580078125
0.177,5.98583984375,-1.62158203125,-5.46533203125
0.1775,5.90576171875,-2.90283203125,-4.50439453125
0.178,5.42529296875,-4.10400390625,-2.94287109375
0.1785,4.70458984375,-5.10498046875,-1.42138671875
0.179,4.14404296875,-5.62548828125,-0.50048828125
0.1795,3.70361328125,-6.14599609375,0.50048828125
0.18,3.18310546875,-6.74658203125,1.38134765625
0.1805,1.42138671875,-6.66650390625,3.06298828125
0.181,0.02001953125,-6.38623046875,4.30419921875
0.1815,-0.98095703125,-6.22607421875,5.06494140625
0.182,-1.66162109375,-6.10595703125,5.74560546875
0.1825,-2.70263671875,-5.74560546875,6.50634765625
0.183,-3.86376953125,-4.94482421875,7.14697265625
0.1835,-5.06494140625,-3.26318359375,6.98681640625
0.184,-5.82568359375,-1.66162109375,6.46630859375
0.1845,-6.10595703125,-0.78076171875,6.10595703125
0.185,-6.26611328125,0.14013671875,5.82568359375
0.1855,-6.50634765625,1.02099609375,5.42529296875
0.186,-6.10595703125,2.58251953125,3.82373046875
0.1865,-5.58544921875,3.70361328125,2.42236328125
0.187,-4.98486328125,4.54443359375,1.18115234375
0.1875,-4.46435546875,5.06494140625,0.30029296875
0.188,-3.90380859375,5.62548828125,-0.74072265625
0.1885,-3.18310546875,6.10595703125,-1.90185546875
0.189,-1.46142578125,5.94580078125,-3.38330078125
0.1895,0.06005859375,5.62548828125,-4.54443359375
0.19,0.78076171875,5.46533203125,-5.26513671875
0.1905,1.58154296875,5.38525390625,-6.02587890625
0.191,2.58251953125,5.06494140625,-6.86669921875
0.1915,4.02392578125,3.62353515625,-7.10693359375
0.192,4.98486328125,2.14208984375,-6.94677734375
0.1925,5.58544921875,0.70068359375,-6.46630859375
0.193,5.78564453125,-0.30029296875,-6.14599609375
0.1935,5.94580078125,-1.14111328125,-5.78564453125
0.194,6.14599609375,-2.10205078125,-5.30517578125
0.1945,5.62548828125,-3.54345703125,-3.54345703125
0.195,5.02490234375,-4.74462890625,-1.94189453125
0.1955,4.50439453125,-5.38525390625,-0.94091796875
0.196,3.98388671875,-5.94580078125,0.02001953125
0.1965,3.50341796875,-6.54638671875,0.98095703125
0.197,2.10205078125,-6.78662109375,2.54248046875
0.1975,0.62060546875,-6.58642578125,3.86376953125
0.198,-0.74072265625,-6.26611328125,4.82470703125
0.1985,-1.42138671875,-6.14599609375,5.50537109375
0.199,-2.34228515625,-5.90576171875,6.26611328125
