wavelength,x,y,z
0.0,-0.230224609375,-6.676513671875,4.694580078125
0.0005,-0.910888671875,-6.596435546875,5.415283203125
0.001,-1.991943359375,-5.835693359375,5.775634765625
0.0015,-3.233154296875,-4.754638671875,6.095947265625
0.002,-4.434326171875,-3.513427734375,6.376220703125
0.0025,-5.235107421875,-2.312255859375,6.376220703125
0.003,-5.715576171875,-1.551513671875,6.336181640625
0.0035,-5.675537109375,-0.790771484375,5.815673828125
0.004,-5.475341796875,0.290283203125,4.974853515625
0.0045,-5.435302734375,1.451416015625,3.973876953125
0.005,-5.315185546875,2.732666015625,2.852783203125
0.0055,-5.155029296875,3.813720703125,1.851806640625
0.006,-4.914794921875,4.494384765625,1.091064453125
0.0065,-4.194091796875,4.854736328125,0.130126953125
0.007,-3.193115234375,5.094970703125,-1.151123046875
0.0075,-2.112060546875,5.495361328125,-2.512451171875
0.008,-1.111083984375,5.735595703125,-3.713623046875
0.0085,-0.390380859375,5.975830078125,-4.754638671875
0.009,0.530517578125,5.735595703125,-5.395263671875
0.0095,1.651611328125,4.814697265625,-5.795654296875
0.01,2.892822265625,3.853759765625,-6.156005859375
0.0105,4.013916015625,2.692626953125,-6.356201171875
0.011,4.814697265625,1.611572265625,-6.396240234375
0.0115,5.135009765625,0.970947265625,-6.356201171875
0.012,5.094970703125,0.090087890625,-5.755615234375
0.0125,5.014892578125,-1.031005859375,-4.874755859375
0.013,5.014892578125,-2.272216796875,-3.873779296875
0.0135,4.894775390625,-3.513427734375,-2.832763671875
0.014,4.814697265625,-4.514404296875,-1.951904296875
0.0145,4.454345703125,-5.074951171875,-1.151123046875
0.015,3.613525390625,-5.395263671875,-0.150146484375
0.0155,2.652587890625,-5.755615234375,1.171142578125
0.016,1.571533203125,-6.115966796875,2.532470703125
0.0165,0.650634765625,-6.396240234375,3.693603515625
0.017,0.010009765625,-6.596435546875,4.614501953125
0.0175,-1.071044921875,-6.236083984375,5.135009765625
0.018,-2.232177734375,-5.235107421875,5.575439453125
0.0185,-3.473388671875,-4.194091796875,6.015869140625
0.019,-4.474365234375,-3.072998046875,6.095947265625
0.0195,-5.155029296875,-2.192138671875,6.216064453125
0.02,-5.355224609375,-1.431396484375,5.935791015625
0.0205,-5.275146484375,-0.590576171875,5.295166015625
0.021,-5.235107421875,0.570556640625,4.494384765625
0.0215,-5.275146484375,1.811767578125,3.533447265625
0.022,-5.155029296875,2.972900390625,2.492431640625
0.0225,-5.074951171875,3.853759765625,1.691650390625
0.023,-4.514404296875,4.334228515625,0.810791015625
0.0235,-3.673583984375,4.614501953125,-0.310302734375
0.024,-2.832763671875,5.135009765625,-1.551513671875
0.0245,-1.751708984375,5.415283203125,-2.872802734375
0.025,-0.990966796875,5.735595703125,-3.913818359375
0.0255,-0.310302734375,5.775634765625,-4.794677734375
0.026,0.890869140625,5.215087890625,-5.275146484375
0.0265,2.052001953125,4.334228515625,-5.715576171875
0.027,3.253173828125,3.253173828125,-6.035888671875
0.0275,4.174072265625,2.172119140625,-6.156005859375
0.028,4.774658203125,1.411376953125,-6.276123046875
0.0285,4.854736328125,0.650634765625,-5.915771484375
0.029,4.814697265625,-0.350341796875,-5.155029296875
0.0295,4.854736328125,-1.471435546875,-4.354248046875
0.03,4.854736328125,-2.752685546875,-3.353271484375
0.0305,4.774658203125,-3.833740234375,-2.432373046875
0.031,4.614501953125,-4.594482421875,-1.671630859375
0.0315,3.973876953125,-5.034912109375,-0.790771484375
0.032,3.173095703125,-5.435302734375,0.450439453125
0.0325,2.212158203125,-5.915771484375,1.811767578125
0.033,1.251220703125,-6.196044921875,3.012939453125
0.0335,0.490478515625,-6.556396484375,4.013916015625
0.034,-0.430419921875,-6.396240234375,4.774658203125
0.0345,-1.551513671875,-5.595458984375,5.215087890625
0.035,-2.832763671875,-4.674560546875,5.695556640625
0.0355,-3.953857421875,-3.553466796875,5.975830078125
0.036,-4.754638671875,-2.552490234375,6.095947265625
0.0365,-5.155029296875,-1.871826171875,6.055908203125
0.037,-5.195068359375,-1.031005859375,5.535400390625
0.0375,-5.195068359375,0.050048828125,4.814697265625
0.038,-5.275146484375,1.291259765625,3.893798828125
0.0385,-5.195068359375,2.492431640625,2.892822265625
0.039,-5.155029296875,3.533447265625,2.011962890625
0.0395,-4.794677734375,4.093994140625,1.251220703125
0.04,-4.033935546875,4.494384765625,0.210205078125
0.0405,-3.153076171875,4.934814453125,-1.111083984375
0.041,-2.112060546875,5.295166015625,-2.432373046875
0.0415,-1.271240234375,5.615478515625,-3.593505859375
0.042,-0.590576171875,5.895751953125,-4.514404296875
0.0425,0.490478515625,5.455322265625,-5.114990234375
0.043,1.691650390625,4.534423828125,-5.595458984375
0.0435,2.932861328125,3.533447265625,-6.035888671875
0.044,3.973876953125,2.412353515625,-6.156005859375
0.0445,4.694580078125,1.531494140625,-6.276123046875
0.045,4.894775390625,0.810791015625,-6.035888671875
0.0455,4.854736328125,-0.190185546875,-5.315185546875
0.046,4.814697265625,-1.271240234375,-4.554443359375
0.0465,4.854736328125,-2.552490234375,-3.553466796875
0.047,4.814697265625,-3.713623046875,-2.552490234375
0.0475,4.734619140625,-4.554443359375,-1.751708984375
0.048,4.134033203125,-5.034912109375,-0.910888671875
0.0485,3.293212890625,-5.435302734375,0.290283203125
0.049,2.332275390625,-5.835693359375,1.571533203125
0.0495,1.291259765625,-6.156005859375,2.852783203125
0.05,0.530517578125,-6.436279296875,3.973876953125
0.0505,-0.350341796875,-6.476318359375,4.814697265625
0.051,-1.431396484375,-5.795654296875,5.255126953125
0.0515,-2.672607421875,-4.834716796875,5.735595703125
0.052,-3.913818359375,-3.673583984375,6.055908203125
0.0525,-4.834716796875,-2.592529296875,6.095947265625
0.053,-5.315185546875,-1.791748046875,6.176025390625
0.0535,-5.395263671875,-1.031005859375,5.735595703125
0.054,-5.275146484375,0.050048828125,4.934814453125
0.0545,-5.315185546875,1.251220703125,4.013916015625
0.055,-5.275146484375,2.532470703125,2.932861328125
0.0555,-5.155029296875,3.613525390625,1.971923828125
0.056,-4.874755859375,4.334228515625,1.171142578125
0.0565,-4.154052734375,4.654541015625,0.210205078125
0.057,-3.193115234375,4.974853515625,-1.151123046875
0.0575,-2.152099609375,5.415283203125,-2.592529296875
0.058,-1.151123046875,5.735595703125,-3.753662109375
0.0585,-0.430419921875,6.015869140625,-4.794677734375
0.059,0.610595703125,5.735595703125,-5.395263671875
0.0595,1.851806640625,4.694580078125,-5.795654296875
0.06,3.093017578125,3.613525390625,-6.236083984375
0.0605,4.214111328125,2.372314453125,-6.396240234375
0.061,4.974853515625,1.331298828125,-6.396240234375
0.0615,5.255126953125,0.610595703125,-6.276123046875
0.062,5.135009765625,-0.350341796875,-5.515380859375
0.0625,4.974853515625,-1.471435546875,-4.554443359375
0.063,5.014892578125,-2.792724609375,-3.513427734375
0.0635,4.894775390625,-3.993896484375,-2.392333984375
0.064,4.774658203125,-4.954833984375,-1.551513671875
0.0645,4.254150390625,-5.435302734375,-0.670654296875
0.065,3.253173828125,-5.715576171875,0.490478515625
0.0655,2.172119140625,-6.075927734375,1.851806640625
0.066,1.051025390625,-6.316162109375,3.253173828125
0.0665,0.210205078125,-6.556396484375,4.334228515625
0.067,-0.630615234375,-6.676513671875,5.175048828125
0.0675,-1.631591796875,-5.995849609375,5.695556640625
0.068,-2.952880859375,-4.834716796875,6.015869140625
0.0685,-4.234130859375,-3.673583984375,6.376220703125
0.069,-5.195068359375,-2.432373046875,6.376220703125
0.0695,-5.755615234375,-1.591552734375,6.376220703125
0.07,-5.755615234375,-0.790771484375,5.935791015625
0.0705,-5.595458984375,0.290283203125,5.054931640625
0.071,-5.475341796875,1.571533203125,3.973876953125
0.0715,-5.435302734375,2.932861328125,2.812744140625
0.072,-5.275146484375,4.013916015625,1.731689453125
0.0725,-5.034912109375,4.774658203125,0.930908203125
0.073,-4.234130859375,5.094970703125,0.010009765625
0.0735,-3.072998046875,5.295166015625,-1.431396484375
0.074,-1.951904296875,5.735595703125,-2.872802734375
0.0745,-0.830810546875,5.895751953125,-4.194091796875
0.075,0.010009765625,6.135986328125,-5.195068359375
0.0755,0.890869140625,5.935791015625,-5.915771484375
0.076,2.092041015625,4.974853515625,-6.276123046875
0.0765,3.493408203125,3.693603515625,-6.596435546875
0.077,4.654541015625,2.372314453125,-6.796630859375
0.0775,5.455322265625,1.131103515625,-6.716552734375
0.078,5.775634765625,0.330322265625,-6.556396484375
0.0785,5.655517578125,-0.670654296875,-5.835693359375
0.079,5.415283203125,-1.871826171875,-4.674560546875
0.0795,5.295166015625,-3.233154296875,-3.473388671875
0.08,5.094970703125,-4.554443359375,-2.232177734375
0.0805,4.854736328125,-5.555419921875,-1.231201171875
0.081,4.414306640625,-6.115966796875,-0.350341796875
0.0815,3.333251953125,-6.276123046875,0.850830078125
0.082,1.971923828125,-6.436279296875,2.292236328125
0.0825,0.690673828125,-6.716552734375,3.853759765625
0.083,-0.390380859375,-6.756591796875,4.974853515625
0.0835,-1.071044921875,-6.916748046875,5.815673828125
0.084,-2.072021484375,-6.276123046875,6.336181640625
0.0845,-3.473388671875,-4.914794921875,6.576416015625
0.085,-4.754638671875,-3.553466796875,6.856689453125
0.0855,-5.795654296875,-2.232177734375,6.856689453125
0.086,-6.316162109375,-1.151123046875,6.656494140625
0.0865,-6.396240234375,-0.310302734375,6.256103515625
0.087,-6.115966796875,0.770751953125,5.255126953125
0.0875,-5.795654296875,2.052001953125,3.933837890625
0.088,-5.675537109375,3.493408203125,2.612548828125
0.0885,-5.395263671875,4.614501953125,1.411376953125
0.089,-5.074951171875,5.415283203125,0.490478515625
0.0895,-4.354248046875,5.655517578125,-0.550537109375
0.09,-3.032958984375,5.815673828125,-1.791748046875
0.0905,-1.671630859375,6.055908203125,-3.353271484375
0.091,-0.390380859375,6.176025390625,-4.754638671875
0.0915,0.570556640625,6.256103515625,-5.715576171875
0.092,1.251220703125,6.135986328125,-6.436279296875
0.0925,2.412353515625,5.175048828125,-6.756591796875
0.093,3.813720703125,3.773681640625,-6.996826171875
0.0935,5.014892578125,2.372314453125,-7.156982421875
0.094,5.855712890625,1.010986328125,-6.996826171875
0.0945,6.216064453125,0.130126953125,-6.796630859375
0.095,6.095947265625,-0.830810546875,-6.156005859375
0.0955,5.735595703125,-1.951904296875,-4.914794921875
0.096,5.455322265625,-3.313232421875,-3.633544921875
0.0965,5.255126953125,-4.714599609375,-2.272216796875
0.097,4.974853515625,-5.755615234375,-1.151123046875
0.0975,4.494384765625,-6.396240234375,-0.350341796875
0.098,3.573486328125,-6.476318359375,0.770751953125
0.0985,2.252197265625,-6.556396484375,2.132080078125
0.099,0.890869140625,-6.756591796875,3.693603515625
0.0995,-0.390380859375,-6.796630859375,4.974853515625
0.1,-1.151123046875,-6.956787109375,5.815673828125
0.1005,-1.951904296875,-6.596435546875,6.416259765625
0.101,-3.193115234375,-5.435302734375,6.696533203125
0.1015,-4.514404296875,-4.033935546875,6.896728515625
0.102,-5.635498046875,-2.632568359375,6.976806640625
0.1025,-6.316162109375,-1.431396484375,6.776611328125
0.103,-6.516357421875,-0.630615234375,6.536376953125
0.1035,-6.316162109375,0.370361328125,5.735595703125
0.104,-5.955810546875,1.571533203125,4.494384765625
0.1045,-5.755615234375,2.892822265625,3.213134765625
0.105,-5.555419921875,4.174072265625,1.931884765625
0.1055,-5.235107421875,5.135009765625,0.850830078125
0.106,-4.714599609375,5.615478515625,0.010009765625
0.1065,-3.633544921875,5.775634765625,-1.151123046875
0.107,-2.272216796875,5.895751953125,-2.592529296875
0.1075,-0.990966796875,6.135986328125,-4.154052734375
0.108,0.130126953125,6.256103515625,-5.275146484375
0.1085,0.850830078125,6.376220703125,-6.115966796875
0.109,1.811767578125,5.735595703125,-6.596435546875
0.1095,3.173095703125,4.414306640625,-6.836669921875
0.11,4.454345703125,3.093017578125,-7.076904296875
0.1105,5.455322265625,1.651611328125,-7.076904296875
0.111,6.055908203125,0.570556640625,-6.916748046875
0.1115,6.095947265625,-0.350341796875,-6.476318359375
0.112,5.815673828125,-1.311279296875,-5.555419921875
0.1125,5.575439453125,-2.632568359375,-4.274169921875
0.113,5.415283203125,-4.114013671875,-2.952880859375
0.1135,5.094970703125,-5.275146484375,-1.671630859375
0.114,4.814697265625,-6.075927734375,-0.750732421875
0.1145,4.134033203125,-6.396240234375,0.250244140625
0.115,2.852783203125,-6.556396484375,1.491455078125
0.1155,1.491455078125,-6.716552734375,3.052978515625
0.116,0.170166015625,-6.836669921875,4.494384765625
0.1165,-0.790771484375,-6.956787109375,5.495361328125
0.117,-1.551513671875,-6.876708984375,6.256103515625
0.1175,-2.632568359375,-5.955810546875,6.616455078125
0.118,-4.033935546875,-4.554443359375,6.896728515625
0.1185,-5.315185546875,-3.193115234375,7.056884765625
0.119,-6.156005859375,-1.831787109375,6.936767578125
0.1195,-6.556396484375,-0.910888671875,6.736572265625
0.12,-6.476318359375,0.130126953125,6.095947265625
0.1205,-6.156005859375,1.211181640625,4.934814453125
0.121,-5.915771484375,2.532470703125,3.613525390625
0.1215,-5.715576171875,3.893798828125,2.212158203125
0.122,-5.395263671875,5.054931640625,1.091064453125
0.1225,-4.954833984375,5.655517578125,0.250244140625
0.123,-3.993896484375,5.855712890625,-0.910888671875
0.1235,-2.592529296875,5.895751953125,-2.312255859375
0.124,-1.271240234375,6.176025390625,-3.833740234375
0.1245,0.010009765625,6.216064453125,-5.114990234375
0.125,0.770751953125,6.336181640625,-6.035888671875
0.1255,1.571533203125,5.935791015625,-6.556396484375
0.126,2.852783203125,4.774658203125,-6.836669921875
0.1265,4.134033203125,3.373291015625,-7.036865234375
0.127,5.295166015625,1.971923828125,-7.116943359375
0.1275,5.895751953125,0.730712890625,-6.876708984375
0.128,6.135986328125,-0.150146484375,-6.636474609375
0.1285,5.895751953125,-1.111083984375,-5.795654296875
0.129,5.535400390625,-2.272216796875,-4.554443359375
0.1295,5.375244140625,-3.593505859375,-3.313232421875
0.13,5.094970703125,-4.834716796875,-1.991943359375
0.1305,4.814697265625,-5.755615234375,-0.990966796875
0.131,4.294189453125,-6.236083984375,-0.190185546875
0.1315,3.253173828125,-6.356201171875,0.970947265625
0.132,1.931884765625,-6.476318359375,2.332275390625
0.1325,0.650634765625,-6.676513671875,3.853759765625
0.133,-0.470458984375,-6.716552734375,4.934814453125
0.1335,-1.111083984375,-6.916748046875,5.775634765625
0.134,-1.991943359375,-6.356201171875,6.216064453125
0.1345,-3.233154296875,-5.114990234375,6.456298828125
0.135,-4.514404296875,-3.833740234375,6.696533203125
0.1355,-5.515380859375,-2.512451171875,6.696533203125
0.136,-6.115966796875,-1.471435546875,6.616455078125
0.1365,-6.236083984375,-0.710693359375,6.296142578125
0.137,-6.035888671875,0.290283203125,5.455322265625
0.1375,-5.755615234375,1.411376953125,4.334228515625
0.138,-5.635498046875,2.852783203125,3.133056640625
0.1385,-5.395263671875,4.013916015625,1.931884765625
0.139,-5.195068359375,4.934814453125,1.010986328125
0.1395,-4.554443359375,5.295166015625,0.130126953125
0.14,-3.473388671875,5.495361328125,-1.111083984375
0.1405,-2.312255859375,5.775634765625,-2.512451171875
0.141,-1.031005859375,5.975830078125,-3.953857421875
0.1415,-0.190185546875,6.135986328125,-4.994873046875
0.142,0.610595703125,6.216064453125,-5.795654296875
0.1425,1.691650390625,5.455322265625,-6.276123046875
0.143,3.012939453125,4.214111328125,-6.556396484375
0.1435,4.254150390625,2.932861328125,-6.796630859375
0.144,5.175048828125,1.651611328125,-6.756591796875
0.1445,5.695556640625,0.730712890625,-6.716552734375
0.145,5.695556640625,-0.190185546875,-6.236083984375
0.1455,5.455322265625,-1.271240234375,-5.275146484375
0.146,5.295166015625,-2.392333984375,-4.154052734375
0.1465,5.175048828125,-3.793701171875,-2.872802734375
0.147,4.974853515625,-4.874755859375,-1.791748046875
0.1475,4.734619140625,-5.635498046875,-0.950927734375
0.148,3.893798828125,-5.915771484375,0.090087890625
0.1485,2.732666015625,-6.115966796875,1.291259765625
0.149,1.531494140625,-6.396240234375,2.732666015625
0.1495,0.370361328125,-6.516357421875,4.013916015625
0.15,-0.430419921875,-6.756591796875,5.054931640625
0.1505,-1.231201171875,-6.556396484375,5.695556640625
0.151,-2.392333984375,-5.595458984375,6.015869140625
0.1515,-3.633544921875,-4.434326171875,6.336181640625
0.152,-4.794677734375,-3.153076171875,6.536376953125
0.1525,-5.555419921875,-2.031982421875,6.456298828125
0.153,-5.915771484375,-1.271240234375,6.296142578125
0.1535,-5.835693359375,-0.470458984375,5.735595703125
0.154,-5.555419921875,0.730712890625,4.734619140625
0.1545,-5.475341796875,1.931884765625,3.653564453125
0.155,-5.315185546875,3.173095703125,2.492431640625
0.1555,-5.114990234375,4.174072265625,1.491455078125
0.156,-4.754638671875,4.814697265625,0.730712890625
0.1565,-3.873779296875,5.054931640625,-0.350341796875
0.157,-2.832763671875,5.295166015625,-1.591552734375
0.1575,-1.671630859375,5.615478515625,-2.992919921875
0.158,-0.710693359375,5.775634765625,-4.154052734375
0.1585,0.050048828125,6.055908203125,-5.114990234375
0.159,0.930908203125,5.655517578125,-5.635498046875
0.1595,2.092041015625,4.654541015625,-5.995849609375
0.16,3.293212890625,3.573486328125,-6.356201171875
0.1605,4.334228515625,2.292236328125,-6.436279296875
0.161,5.054931640625,1.291259765625,-6.436279296875
0.1615,5.255126953125,0.530517578125,-6.396240234375
0.162,5.135009765625,-0.310302734375,-5.595458984375
0.1625,5.014892578125,-1.311279296875,-4.714599609375
0.163,5.014892578125,-2.632568359375,-3.673583984375
0.1635,4.854736328125,-3.833740234375,-2.552490234375
0.164,4.774658203125,-4.754638671875,-1.751708984375
0.1645,4.334228515625,-5.235107421875,-0.950927734375
0.165,3.413330078125,-5.515380859375,0.210205078125
0.1655,2.412353515625,-5.875732421875,1.491455078125
0.166,1.331298828125,-6.115966796875,2.812744140625
0.1665,0.490478515625,-6.436279296875,3.893798828125
0.167,-0.310302734375,-6.596435546875,4.774658203125
0.1675,-1.271240234375,-6.075927734375,5.255126953125
0.168,-2.432373046875,-5.114990234375,5.695556640625
0.1685,-3.673583984375,-4.073974609375,6.095947265625
0.169,-4.634521484375,-2.912841796875,6.095947265625
0.1695,-5.355224609375,-2.152099609375,6.256103515625
0.17,-5.435302734375,-1.351318359375,5.935791015625
0.1705,-5.315185546875,-0.510498046875,5.215087890625
0.171,-5.275146484375,0.690673828125,4.414306640625
0.1715,-5.275146484375,1.931884765625,3.413330078125
0.172,-5.195068359375,3.093017578125,2.412353515625
0.1725,-5.074951171875,3.893798828125,1.611572265625
0.173,-4.474365234375,4.374267578125,0.770751953125
0.1735,-3.593505859375,4.734619140625,-0.430419921875
0.174,-2.712646484375,5.175048828125,-1.711669921875
0.1745,-1.671630859375,5.495361328125,-2.992919921875
0.175,-0.990966796875,5.815673828125,-4.033935546875
0.1755,-0.190185546875,5.815673828125,-4.834716796875
0.176,0.970947265625,5.135009765625,-5.275146484375
0.1765,2.212158203125,4.174072265625,-5.755615234375
0.177,3.373291015625,3.133056640625,-6.115966796875
0.1775,4.334228515625,2.011962890625,-6.316162109375
0.178,4.774658203125,1.371337890625,-6.276123046875
0.1785,4.854736328125,0.610595703125,-5.835693359375
0.179,4.814697265625,-0.430419921875,-5.114990234375
0.1795,4.854736328125,-1.551513671875,-4.314208984375
0.18,4.814697265625,-2.832763671875,-3.233154296875
0.1805,4.814697265625,-3.873779296875,-2.392333984375
0.181,4.534423828125,-4.634521484375,-1.631591796875
0.1815,3.933837890625,-5.034912109375,-0.710693359375
0.182,3.093017578125,-5.435302734375,0.490478515625
0.1825,2.092041015625,-5.835693359375,1.891845703125
0.183,1.211181640625,-6.196044921875,3.052978515625
0.1835,0.490478515625,-6.556396484375,4.093994140625
0.184,-0.510498046875,-6.316162109375,4.814697265625
0.1845,-1.671630859375,-5.515380859375,5.295166015625
0.185,-2.872802734375,-4.634521484375,5.735595703125
0.1855,-4.114013671875,-3.473388671875,6.095947265625
0.186,-4.834716796875,-2.552490234375,6.095947265625
0.1865,-5.195068359375,-1.791748046875,6.055908203125
0.187,-5.195068359375,-0.990966796875,5.495361328125
0.1875,-5.195068359375,0.130126953125,4.734619140625
0.188,-5.275146484375,1.411376953125,3.853759765625
