wavelength,x,y,z
0.0,19.544067382812,0.4454345703125,-18.693237304688
0.0005,17.462036132812,3.9688720703125,-20.535034179688
0.001,15.380004882812,7.1719970703125,-21.776245117188
0.0015,11.936645507812,10.094848632812,-21.455932617188
0.002,7.3321533203125,13.898559570312,-20.695190429688
0.0025,3.0079345703125,17.101684570312,-19.734252929688
0.003,-2.0770263671875,19.664184570312,-17.612182617188
0.0035,-5.4803466796875,20.865356445312,-15.610229492188
0.004,-8.4832763671875,20.945434570312,-12.927612304688
0.0045,-11.526245117188,20.785278320312,-9.9647216796875
0.005,-15.570190429688,19.704223632812,-4.8797607421875
0.0055,-18.573120117188,18.102661132812,-0.3953857421875
0.006,-20.655151367188,16.180786132812,3.5284423828125
0.0065,-21.656127929688,13.938598632812,6.7315673828125
0.007,-21.415893554688,10.695434570312,9.7344970703125
0.0075,-21.095581054688,6.9718017578125,13.137817382812
0.008,-20.454956054688,2.9278564453125,16.581176757812
0.0085,-18.733276367188,-1.5965576171875,19.343872070312
0.009,-16.651245117188,-5.1199951171875,20.785278320312
0.0095,-14.288940429688,-8.0428466796875,21.385864257812
0.01,-11.045776367188,-10.885620117188,21.265747070312
0.0105,-5.7205810546875,-14.809448242188,19.984497070312
0.011,-1.3162841796875,-17.652221679688,18.703247070312
0.0115,2.9678955078125,-19.734252929688,16.781372070312
0.012,6.2110595703125,-20.735229492188,14.739379882812
0.0125,9.2139892578125,-20.494995117188,11.656372070312
0.013,12.417114257812,-20.174682617188,8.2930908203125
0.0135,16.180786132812,-19.213745117188,3.7286376953125
0.014,18.903442382812,-17.331909179688,-0.9158935546875
0.0145,20.464965820312,-15.410034179688,-4.1990966796875
0.015,21.065551757812,-13.007690429688,-7.2020263671875
0.0155,20.825317382812,-9.9647216796875,-10.004760742188
0.016,20.224731445312,-5.6004638671875,-13.768432617188
0.0165,19.423950195312,-1.8768310546875,-16.731323242188
0.017,17.782348632812,2.2071533203125,-19.173706054688
0.0175,15.700317382812,5.4102783203125,-20.454956054688
0.018,12.857543945312,8.2930908203125,-20.454956054688
0.0185,9.6143798828125,11.376098632812,-20.374877929688
0.019,4.4893798828125,15.099731445312,-19.253784179688
0.0195,-0.1951904296875,17.702270507812,-17.452026367188
0.02,-3.5985107421875,19.263793945312,-15.810424804688
0.0205,-6.6014404296875,20.064575195312,-13.808471679688
0.021,-9.4842529296875,19.664184570312,-10.765502929688
0.0215,-12.967651367188,19.063598632812,-6.7215576171875
0.022,-16.290893554688,18.142700195312,-2.6776123046875
0.0225,-18.773315429688,16.260864257812,1.7266845703125
0.023,-19.894409179688,14.379028320312,4.6495361328125
0.0235,-20.214721679688,11.776489257812,7.5323486328125
0.024,-20.134643554688,8.8536376953125,10.375122070312
0.0245,-19.534057617188,4.4893798828125,14.098754882812
0.025,-18.332885742188,0.5655517578125,16.821411132812
0.0255,-16.851440429688,-3.0379638671875,18.863403320312
0.026,-14.929565429688,-5.9207763671875,19.984497070312
0.0265,-11.846557617188,-8.6033935546875,19.704223632812
0.027,-8.0828857421875,-11.886596679688,19.383911132812
0.0275,-3.5184326171875,-15.329956054688,18.422973632812
0.028,1.1260986328125,-17.612182617188,16.461059570312
0.0285,4.0089111328125,-18.853393554688,14.939575195312
0.029,6.8917236328125,-19.373901367188,12.777465820312
0.0295,9.6944580078125,-19.053588867188,9.8546142578125
0.03,13.378051757812,-18.332885742188,5.5303955078125
0.0305,16.300903320312,-17.171752929688,1.5665283203125
0.031,18.422973632812,-15.530151367188,-2.2772216796875
0.0315,19.303833007812,-13.528198242188,-4.9998779296875
0.032,19.343872070312,-10.765502929688,-7.7625732421875
0.0325,19.223754882812,-7.6424560546875,-10.885620117188
0.033,18.863403320312,-3.6785888671875,-14.088745117188
0.0335,17.301879882812,0.3253173828125,-16.891479492188
0.034,15.820434570312,3.4083251953125,-18.453002929688
0.0345,13.818481445312,6.2110595703125,-19.293823242188
0.035,10.735473632812,8.8936767578125,-19.093627929688
0.0355,6.4112548828125,12.497192382812,-18.412963867188
0.036,2.2471923828125,15.500122070312,-17.452026367188
0.0365,-1.9569091796875,17.622192382812,-15.730346679688
0.037,-4.6395263671875,18.503051757812,-14.088745117188
0.0375,-7.4422607421875,18.663208007812,-11.646362304688
0.038,-10.525268554688,18.422973632812,-8.4432373046875
0.0385,-14.048706054688,17.662231445312,-4.3592529296875
0.039,-16.691284179688,16.180786132812,-0.3153076171875
0.0395,-18.453002929688,14.659301757812,3.0079345703125
0.04,-19.093627929688,12.537231445312,5.6905517578125
0.0405,-19.053588867188,9.7745361328125,8.3731689453125
0.041,-18.773315429688,6.0108642578125,11.736450195312
0.0415,-18.252807617188,2.4073486328125,14.899536132812
0.042,-16.771362304688,-1.4764404296875,17.341918945312
0.0425,-15.129760742188,-4.2791748046875,18.543090820312
0.043,-12.887573242188,-6.9617919921875,19.063598632812
0.0435,-9.6043701171875,-9.7645263671875,19.023559570312
0.044,-4.9998779296875,-13.448120117188,17.942504882812
0.0445,-0.8758544921875,-16.050659179688,16.661254882812
0.045,2.6475830078125,-17.892456054688,15.219848632812
0.0455,5.3302001953125,-18.533081054688,13.418090820312
0.046,8.0128173828125,-18.453002929688,10.775512695312
0.0465,11.456176757812,-18.092651367188,7.1319580078125
0.047,14.739379882812,-17.291870117188,3.1680908203125
0.0475,17.141723632812,-15.650268554688,-0.8758544921875
0.048,18.342895507812,-14.048706054688,-3.5985107421875
0.0485,18.823364257812,-11.806518554688,-6.2811279296875
0.049,18.743286132812,-8.8035888671875,-9.2440185546875
0.0495,18.262817382812,-5.0399169921875,-12.567260742188
0.05,17.421997070312,-1.3162841796875,-15.410034179688
0.0505,16.140747070312,2.2471923828125,-17.612182617188
0.051,14.178833007812,4.9298095703125,-18.412963867188
0.0515,11.656372070312,7.5323486328125,-18.573120117188
0.052,7.9727783203125,10.855590820312,-18.412963867188
0.0525,3.6485595703125,14.178833007812,-17.492065429688
0.053,-0.5955810546875,16.461059570312,-15.850463867188
0.0535,-3.4783935546875,17.902465820312,-14.569213867188
0.054,-6.2010498046875,18.342895507812,-12.487182617188
0.0545,-9.0438232421875,18.062622070312,-9.5643310546875
0.055,-12.447143554688,17.662231445312,-5.7606201171875
0.0555,-15.450073242188,16.581176757812,-1.8367919921875
0.056,-17.692260742188,14.899536132812,2.0069580078125
0.0565,-18.493041992188,13.097778320312,4.5694580078125
0.057,-18.853393554688,10.615356445312,7.3321533203125
0.0575,-18.653198242188,7.2921142578125,10.495239257812
0.058,-18.252807617188,3.5684814453125,13.778442382812
0.0585,-17.011596679688,-0.1551513671875,16.260864257812
0.059,-15.690307617188,-3.3983154296875,18.222778320312
0.0595,-13.608276367188,-6.0408935546875,18.823364257812
0.06,-10.645385742188,-8.8035888671875,18.703247070312
0.0605,-6.5614013671875,-12.206909179688,18.222778320312
0.061,-2.1170654296875,-15.329956054688,17.141723632812
0.0615,1.9268798828125,-17.331909179688,15.420043945312
0.062,4.4893798828125,-18.252807617188,13.938598632812
0.0625,7.2120361328125,-18.573120117188,11.696411132812
0.063,10.535278320312,-18.372924804688,8.1329345703125
0.0635,13.738403320312,-17.572143554688,4.4093017578125
0.064,16.421020507812,-16.210815429688,0.4854736328125
0.0645,18.422973632812,-14.689331054688,-3.0780029296875
0.065,18.823364257812,-12.487182617188,-5.6405029296875
0.0655,18.903442382812,-9.7645263671875,-8.4832763671875
0.066,18.543090820312,-6.0408935546875,-11.806518554688
0.0665,17.982543945312,-2.2772216796875,-15.009643554688
0.067,16.461059570312,1.4864501953125,-17.131713867188
0.0675,14.979614257812,4.2891845703125,-18.533081054688
0.068,12.657348632812,7.0118408203125,-18.973510742188
0.0685,8.9737548828125,10.134887695312,-18.573120117188
0.069,5.0098876953125,13.297973632812,-17.932495117188
0.0695,0.6456298828125,16.060668945312,-16.531127929688
0.07,-3.0780029296875,17.902465820312,-14.969604492188
0.0705,-5.5203857421875,18.262817382812,-13.087768554688
0.071,-8.2030029296875,18.463012695312,-10.765502929688
0.0715,-11.806518554688,17.862426757812,-6.7215576171875
0.072,-14.809448242188,16.941528320312,-2.8377685546875
0.0725,-17.051635742188,15.380004882812,0.9259033203125
0.073,-18.573120117188,13.778442382812,4.0089111328125
0.0735,-18.893432617188,11.376098632812,6.5313720703125
0.074,-18.813354492188,8.2930908203125,9.6544189453125
0.0745,-18.372924804688,4.7696533203125,12.777465820312
0.075,-17.532104492188,0.9659423828125,15.700317382812
0.0755,-15.970581054688,-2.6776123046875,17.782348632812
0.076,-14.208862304688,-5.1199951171875,18.503051757812
0.0765,-11.886596679688,-7.7225341796875,18.903442382812
0.077,-7.6424560546875,-11.245971679688,18.302856445312
0.0775,-3.5584716796875,-14.248901367188,17.421997070312
0.078,0.4854736328125,-16.491088867188,15.900512695312
0.0785,3.6885986328125,-18.132690429688,14.539184570312
0.079,6.2110595703125,-18.252807617188,12.296997070312
0.0795,8.9737548828125,-18.132690429688,9.6143798828125
0.08,12.497192382812,-17.692260742188,5.7305908203125
0.0805,15.420043945312,-16.531127929688,1.7667236328125
0.081,17.462036132812,-15.009643554688,-1.8768310546875
0.0815,18.382934570312,-13.207885742188,-4.5194091796875
0.082,18.703247070312,-10.765502929688,-7.1619873046875
0.0825,18.463012695312,-7.1219482421875,-10.565307617188
0.083,18.022583007812,-3.7987060546875,-13.488159179688
0.0835,16.901489257812,0.0050048828125,-16.010620117188
0.084,15.500122070312,3.3282470703125,-18.052612304688
0.0845,13.378051757812,5.9307861328125,-18.252807617188
0.085,10.815551757812,8.3731689453125,-18.573120117188
0.0855,6.3712158203125,12.016723632812,-17.972534179688
0.086,2.0870361328125,14.979614257812,-16.851440429688
0.0865,-1.5965576171875,16.861450195312,-15.369995117188
0.087,-4.4393310546875,18.102661132812,-13.928588867188
0.0875,-7.0819091796875,18.222778320312,-11.566284179688
0.088,-10.285034179688,17.782348632812,-8.0828857421875
0.0885,-13.448120117188,17.301879882812,-4.5594482421875
0.089,-16.210815429688,15.940551757812,-0.5155029296875
0.0895,-18.172729492188,14.338989257812,2.9678955078125
0.09,-18.573120117188,12.216918945312,5.4903564453125
0.0905,-18.853393554688,9.8546142578125,8.1329345703125
0.091,-18.453002929688,5.7706298828125,11.816528320312
0.0915,-17.852416992188,2.2071533203125,14.779418945312
0.092,-16.531127929688,-1.3162841796875,16.941528320312
0.0925,-15.249877929688,-4.3592529296875,18.703247070312
0.093,-12.527221679688,-6.9617919921875,18.703247070312
0.0935,-9.3240966796875,-9.9246826171875,18.583129882812
0.094,-5.1600341796875,-13.328002929688,17.982543945312
0.0945,-0.6356201171875,-16.090698242188,16.501098632812
0.095,2.8477783203125,-17.772338867188,14.979614257812
0.0955,5.4503173828125,-18.453002929688,13.177856445312
0.096,8.1329345703125,-18.573120117188,10.855590820312
0.0965,11.816528320312,-17.932495117188,6.5714111328125
0.097,14.779418945312,-17.171752929688,3.0079345703125
0.0975,17.141723632812,-15.730346679688,-0.9158935546875
0.098,18.823364257812,-14.048706054688,-4.0789794921875
0.0985,19.023559570312,-11.245971679688,-6.6014404296875
0.099,19.023559570312,-8.6834716796875,-9.6043701171875
0.0995,18.623168945312,-4.7996826171875,-13.127807617188
0.1,17.622192382812,-0.8358154296875,-16.010620117188
0.1005,16.060668945312,2.5675048828125,-17.812377929688
0.101,14.379028320312,5.2901611328125,-19.053588867188
0.1015,11.736450195312,8.0128173828125,-19.133666992188
0.102,7.3721923828125,11.576293945312,-18.533081054688
0.1025,3.5684814453125,14.579223632812,-17.892456054688
0.103,-0.8758544921875,17.021606445312,-16.170776367188
0.1035,-4.1590576171875,18.543090820312,-14.609252929688
0.104,-6.7615966796875,18.543090820312,-12.527221679688
0.1045,-9.4842529296875,18.743286132812,-9.7645263671875
0.105,-13.408081054688,17.942504882812,-5.2801513671875
0.1055,-16.370971679688,16.661254882812,-1.1561279296875
0.106,-18.332885742188,15.099731445312,2.3673095703125
0.1065,-19.534057617188,13.257934570312,5.4102783203125
0.107,-19.413940429688,10.535278320312,8.0528564453125
0.1075,-19.293823242188,6.9718017578125,11.496215820312
0.108,-18.933471679688,3.3282470703125,14.659301757812
0.1085,-17.612182617188,-0.7957763671875,17.421997070312
0.109,-15.850463867188,-4.1590576171875,19.103637695312
0.1095,-13.608276367188,-6.8016357421875,19.584106445312
0.11,-10.885620117188,-9.4842529296875,19.784301757812
0.1105,-5.7606201171875,-13.448120117188,18.703247070312
0.111,-1.6365966796875,-16.170776367188,17.542114257812
0.1115,2.3272705078125,-18.252807617188,15.860473632812
0.112,5.4503173828125,-19.534057617188,14.178833007812
0.1125,8.2930908203125,-19.253784179688,11.336059570312
0.113,11.376098632812,-18.973510742188,8.0928955078125
0.1135,14.899536132812,-18.292846679688,3.9288330078125
0.114,17.782348632812,-16.531127929688,-0.6356201171875
0.1145,19.343872070312,-14.769409179688,-3.8387451171875
0.115,20.024536132812,-12.487182617188,-6.6815185546875
0.1155,19.984497070312,-9.7645263671875,-9.4041748046875
0.116,19.383911132812,-5.4403076171875,-13.167846679688
0.1165,18.703247070312,-1.7967529296875,-16.050659179688
0.117,17.221801757812,2.0870361328125,-18.493041992188
0.1175,15.380004882812,5.3702392578125,-19.934448242188
0.118,12.457153320312,8.2930908203125,-19.614135742188
0.1185,9.2540283203125,11.095825195312,-19.894409179688
0.119,4.2891845703125,14.859497070312,-18.853393554688
0.1195,-0.4754638671875,17.542114257812,-17.011596679688
0.12,-3.7987060546875,19.023559570312,-15.410034179688
0.1205,-6.8016357421875,19.864379882812,-13.448120117188
0.121,-9.6444091796875,19.463989257812,-10.405151367188
0.1215,-13.207885742188,18.743286132812,-6.2811279296875
0.122,-16.370971679688,17.902465820312,-2.3172607421875
0.1225,-18.933471679688,15.980590820312,2.0870361328125
0.123,-20.094604492188,14.058715820312,5.1700439453125
0.1235,-20.334838867188,11.336059570312,8.0528564453125
0.124,-20.254760742188,8.4532470703125,10.855590820312
0.1245,-19.614135742188,3.9688720703125,14.659301757812
0.125,-18.252807617188,0.0050048828125,17.421997070312
0.1255,-16.651245117188,-3.5584716796875,19.343872070312
0.126,-14.769409179688,-6.5614013671875,20.464965820312
0.1265,-11.406127929688,-9.4041748046875,20.064575195312
0.127,-7.5623779296875,-12.647338867188,19.624145507812
0.1275,-2.9578857421875,-16.010620117188,18.623168945312
0.128,1.8468017578125,-18.453002929688,16.541137695312
0.1285,4.8096923828125,-19.574096679688,14.779418945312
0.129,7.7325439453125,-19.974487304688,12.497192382812
0.1295,10.575317382812,-19.654174804688,9.4542236328125
0.13,14.379028320312,-18.653198242188,4.9298095703125
0.1305,17.301879882812,-17.371948242188,0.8057861328125
0.131,19.423950195312,-15.610229492188,-3.0780029296875
0.1315,20.264770507812,-13.488159179688,-5.9608154296875
0.132,20.184692382812,-10.445190429688,-8.9637451171875
0.1325,19.944458007812,-7.1219482421875,-12.006713867188
0.133,19.343872070312,-3.0780029296875,-15.450073242188
0.1335,17.742309570312,1.2061767578125,-18.052612304688
0.134,15.980590820312,4.3692626953125,-19.534057617188
0.1345,13.898559570312,7.2120361328125,-20.334838867188
0.135,10.455200195312,10.094848632812,-19.934448242188
0.1355,5.7305908203125,13.698364257812,-19.053588867188
0.136,1.5665283203125,16.621215820312,-17.972534179688
0.1365,-2.8377685546875,18.783325195312,-16.010620117188
0.137,-5.7205810546875,19.584106445312,-14.208862304688
0.1375,-8.6434326171875,19.504028320312,-11.486206054688
0.138,-11.726440429688,19.223754882812,-8.1629638671875
0.1385,-15.329956054688,18.262817382812,-3.7586669921875
0.139,-18.012573242188,16.581176757812,0.6456298828125
0.1395,-19.694213867188,14.819458007812,3.9688720703125
0.14,-20.294799804688,12.537231445312,6.8516845703125
0.1405,-20.134643554688,9.4542236328125,9.7344970703125
0.141,-19.614135742188,5.5704345703125,13.137817382812
0.1415,-18.973510742188,1.7667236328125,16.340942382812
0.142,-17.331909179688,-2.4373779296875,18.823364257812
0.1425,-15.369995117188,-5.4002685546875,19.864379882812
0.143,-12.847534179688,-8.2030029296875,20.304809570312
0.1435,-9.4041748046875,-11.286010742188,20.024536132812
0.144,-4.3992919921875,-14.849487304688,18.863403320312
0.1445,0.0450439453125,-17.492065429688,17.301879882812
0.145,3.7686767578125,-19.333862304688,15.620239257812
0.1455,6.5714111328125,-19.974487304688,13.538208007812
0.146,9.6143798828125,-19.694213867188,10.535278320312
0.1465,13.017700195312,-19.173706054688,6.6915283203125
0.147,16.380981445312,-18.132690429688,2.4874267578125
0.1475,18.903442382812,-16.250854492188,-1.7967529296875
0.148,20.104614257812,-14.369018554688,-4.9998779296875
0.1485,20.545043945312,-11.806518554688,-7.9627685546875
0.149,20.304809570312,-8.3631591796875,-11.125854492188
0.1495,19.664184570312,-4.2791748046875,-14.569213867188
0.15,18.543090820312,-0.3553466796875,-17.331909179688
0.1505,16.861450195312,3.6485595703125,-19.614135742188
0.151,14.539184570312,6.5313720703125,-20.294799804688
0.1515,11.536254882812,9.4542236328125,-20.374877929688
0.152,7.5323486328125,12.857543945312,-19.934448242188
0.1525,2.7276611328125,16.220825195312,-18.733276367188
0.153,-1.9168701171875,18.503051757812,-16.691284179688
0.1535,-4.9998779296875,19.864379882812,-15.089721679688
0.154,-8.0828857421875,20.224731445312,-12.607299804688
0.1545,-11.245971679688,19.784301757812,-9.2440185546875
0.155,-14.769409179688,19.023559570312,-5.0399169921875
0.1555,-18.092651367188,17.622192382812,-0.6356201171875
0.156,-20.214721679688,15.660278320312,3.6885986328125
0.1565,-20.855346679688,13.418090820312,6.5313720703125
0.157,-21.135620117188,10.535278320312,9.6143798828125
0.1575,-20.775268554688,6.6915283203125,13.097778320312
0.158,-19.974487304688,2.5675048828125,16.461059570312
0.1585,-18.292846679688,-1.5965576171875,18.903442382812
0.159,-16.611206054688,-5.2401123046875,20.905395507812
0.1595,-13.968627929688,-8.0828857421875,21.265747070312
0.16,-10.445190429688,-11.205932617188,20.945434570312
0.1605,-5.9207763671875,-14.729370117188,20.104614257812
0.161,-0.9559326171875,-17.972534179688,18.583129882812
0.1615,3.4884033203125,-19.974487304688,16.380981445312
0.162,6.4512939453125,-20.775268554688,14.499145507812
0.1625,9.6143798828125,-20.855346679688,11.816528320312
0.163,13.017700195312,-20.174682617188,7.6925048828125
0.1635,16.461059570312,-19.173706054688,3.5284423828125
0.164,19.263793945312,-17.492065429688,-1.1561279296875
0.1645,21.225708007812,-15.410034179688,-4.9998779296875
0.165,21.465942382812,-12.727416992188,-7.8826904296875
0.1655,21.465942382812,-9.6043701171875,-11.045776367188
0.166,20.825317382812,-5.3602294921875,-14.609252929688
0.1665,19.864379882812,-1.1561279296875,-17.892456054688
0.167,17.862426757812,3.0479736328125,-20.014526367188
0.1675,15.900512695312,6.3311767578125,-21.415893554688
0.168,12.937622070312,9.2540283203125,-21.576049804688
0.1685,8.8135986328125,12.657348632812,-20.975463867188
0.169,4.2891845703125,15.980590820312,-19.934448242188
0.1695,-0.7957763671875,18.903442382812,-18.212768554688
0.17,-4.8797607421875,20.745239257812,-16.090698242188
0.1705,-7.7225341796875,20.985473632812,-13.728393554688
0.171,-10.765502929688,21.025512695312,-10.885620117188
0.1715,-14.609252929688,20.064575195312,-6.2811279296875
0.172,-17.812377929688,18.823364257812,-1.8768310546875
0.1725,-20.254760742188,16.901489257812,2.4874267578125
0.173,-21.656127929688,14.859497070312,6.1309814453125
0.1735,-21.856323242188,11.816528320312,9.0938720703125
0.174,-21.736206054688,8.2530517578125,12.497192382812
0.1745,-20.975463867188,4.0089111328125,15.940551757812
0.175,-19.734252929688,-0.5955810546875,19.063598632812
0.1755,-17.572143554688,-4.5194091796875,21.105590820312
0.176,-15.289916992188,-7.5223388671875,21.906372070312
0.1765,-12.286987304688,-10.565307617188,22.106567382812
0.177,-7.2420654296875,-14.449096679688,21.105590820312
0.1775,-2.7176513671875,-17.572143554688,19.824340820312
0.178,2.1671142578125,-19.974487304688,17.782348632812
