wavelength,x,y,z
0.0,-5.14501953125,-1.14111328125,5.58544921875
0.0005,-4.94482421875,-0.30029296875,4.82470703125
0.001,-5.10498046875,0.78076171875,4.14404296875
0.0015,-5.06494140625,1.94189453125,3.22314453125
0.002,-4.86474609375,2.90283203125,2.38232421875
0.0025,-4.70458984375,3.74365234375,1.54150390625
0.003,-4.14404296875,4.22412109375,0.66064453125
0.0035,-3.30322265625,4.50439453125,-0.58056640625
0.004,-2.50244140625,5.02490234375,-1.66162109375
0.0045,-1.54150390625,5.10498046875,-2.82275390625
0.005,-0.78076171875,5.34521484375,-3.70361328125
0.0055,0.14013671875,5.34521484375,-4.62451171875
0.006,1.14111328125,4.74462890625,-4.98486328125
0.0065,2.26220703125,3.86376953125,-5.50537109375
0.007,3.34326171875,2.90283203125,-5.74560546875
0.0075,3.98388671875,1.94189453125,-5.82568359375
0.008,4.62451171875,1.22119140625,-5.90576171875
0.0085,4.66455078125,0.30029296875,-5.42529296875
0.009,4.66455078125,-0.82080078125,-4.66455078125
0.0095,4.70458984375,-1.86181640625,-3.98388671875
0.01,4.66455078125,-2.90283203125,-3.14306640625
0.0105,4.50439453125,-3.74365234375,-2.10205078125
0.011,4.26416015625,-4.66455078125,-1.38134765625
0.0115,3.58349609375,-4.82470703125,-0.38037109375
0.012,2.62255859375,-5.38525390625,0.78076171875
0.0125,1.78173828125,-5.62548828125,2.06201171875
0.013,0.82080078125,-5.82568359375,2.98291015625
0.0135,0.18017578125,-6.06591796875,3.98388671875
0.014,-0.82080078125,-5.86572265625,4.62451171875
0.0145,-1.90185546875,-4.98486328125,5.06494140625
0.015,-3.02294921875,-4.22412109375,5.50537109375
0.0155,-3.90380859375,-3.14306640625,5.70556640625
0.016,-4.66455078125,-2.26220703125,5.70556640625
0.0165,-5.02490234375,-1.46142578125,5.70556640625
0.017,-5.10498046875,-0.70068359375,5.06494140625
0.0175,-5.10498046875,0.50048828125,4.34423828125
0.018,-5.22509765625,1.58154296875,3.46337890625
0.0185,-4.90478515625,2.66259765625,2.62255859375
0.019,-4.90478515625,3.50341796875,1.74169921875
0.0195,-4.46435546875,4.14404296875,0.94091796875
0.02,-3.58349609375,4.38427734375,-0.26025390625
0.0205,-2.74267578125,4.86474609375,-1.34130859375
0.021,-1.78173828125,5.06494140625,-2.58251953125
0.0215,-0.94091796875,5.30517578125,-3.54345703125
0.022,-0.26025390625,5.42529296875,-4.46435546875
0.0225,0.98095703125,4.94482421875,-4.98486328125
0.023,2.06201171875,3.98388671875,-5.38525390625
0.0235,3.22314453125,3.10302734375,-5.82568359375
0.024,3.98388671875,2.18212890625,-5.78564453125
0.0245,4.62451171875,1.18115234375,-5.90576171875
0.025,4.86474609375,0.50048828125,-5.54541015625
0.0255,4.70458984375,-0.70068359375,-4.82470703125
0.026,4.82470703125,-1.62158203125,-4.02392578125
0.0265,4.74462890625,-2.86279296875,-3.14306640625
0.027,4.62451171875,-3.70361328125,-2.18212890625
0.0275,4.42431640625,-4.62451171875,-1.42138671875
0.028,3.82373046875,-4.94482421875,-0.50048828125
0.0285,2.78271484375,-5.26513671875,0.74072265625
0.029,1.90185546875,-5.62548828125,2.02197265625
0.0295,0.90087890625,-5.78564453125,3.06298828125
0.03,0.18017578125,-5.90576171875,4.02392578125
0.0305,-0.70068359375,-5.94580078125,4.82470703125
0.031,-1.70166015625,-5.06494140625,5.22509765625
0.0315,-2.98291015625,-4.26416015625,5.62548828125
0.032,-3.94384765625,-3.10302734375,5.90576171875
0.0325,-4.74462890625,-2.26220703125,5.82568359375
0.033,-5.14501953125,-1.42138671875,5.82568359375
0.0335,-5.30517578125,-0.62060546875,5.22509765625
0.034,-5.10498046875,0.62060546875,4.38427734375
0.0345,-5.26513671875,1.74169921875,3.58349609375
0.035,-5.02490234375,2.86279296875,2.58251953125
0.0355,-4.86474609375,3.74365234375,1.66162109375
0.036,-4.50439453125,4.54443359375,0.90087890625
0.0365,-3.70361328125,4.66455078125,-0.30029296875
0.037,-2.50244140625,5.10498046875,-1.50146484375
0.0375,-1.66162109375,5.30517578125,-2.82275390625
0.038,-0.66064453125,5.42529296875,-3.82373046875
0.0385,0.10009765625,5.58544921875,-4.66455078125
0.039,0.94091796875,5.10498046875,-5.38525390625
0.0395,2.22216796875,4.14404296875,-5.66552734375
0.04,3.38330078125,3.18310546875,-6.10595703125
0.0405,4.22412109375,1.94189453125,-6.18603515625
0.041,4.82470703125,1.06103515625,-5.94580078125
0.0415,5.14501953125,0.18017578125,-5.94580078125
0.042,5.14501953125,-0.66064453125,-4.94482421875
0.0425,4.90478515625,-2.06201171875,-3.98388671875
0.043,5.10498046875,-3.14306640625,-3.06298828125
0.0435,4.62451171875,-4.18408203125,-2.02197265625
0.044,4.50439453125,-4.94482421875,-1.22119140625
0.0445,3.82373046875,-5.50537109375,-0.30029296875
0.045,2.82275390625,-5.62548828125,0.90087890625
0.0455,1.62158203125,-5.98583984375,2.26220703125
0.046,0.62060546875,-6.02587890625,3.54345703125
0.0465,-0.34033203125,-6.18603515625,4.34423828125
0.047,-0.90087890625,-6.02587890625,5.26513671875
0.0475,-2.06201171875,-5.42529296875,5.58544921875
0.048,-3.22314453125,-4.14404296875,6.06591796875
0.0485,-4.42431640625,-3.18310546875,6.26611328125
0.049,-5.06494140625,-2.02197265625,6.14599609375
0.0495,-5.58544921875,-1.22119140625,6.02587890625
0.05,-5.70556640625,-0.34033203125,5.54541015625
0.0505,-5.46533203125,0.90087890625,4.62451171875
0.051,-5.46533203125,1.98193359375,3.46337890625
0.0515,-5.26513671875,3.34326171875,2.50244140625
0.052,-5.02490234375,4.02392578125,1.34130859375
0.0525,-4.62451171875,4.86474609375,0.66064453125
0.053,-3.70361328125,5.10498046875,-0.62060546875
0.0535,-2.58251953125,5.34521484375,-1.78173828125
0.054,-1.42138671875,5.62548828125,-3.30322265625
0.0545,-0.42041015625,5.66552734375,-4.22412109375
0.055,0.42041015625,5.62548828125,-5.18505859375
0.0555,1.26123046875,5.50537109375,-5.78564453125
0.056,2.42236328125,4.30419921875,-6.18603515625
0.0565,3.78369140625,3.10302734375,-6.50634765625
0.057,4.66455078125,1.86181640625,-6.66650390625
0.0575,5.34521484375,0.90087890625,-6.38623046875
0.058,5.58544921875,-0.18017578125,-6.30615234375
0.0585,5.50537109375,-1.14111328125,-5.42529296875
0.059,5.22509765625,-2.42236328125,-4.18408203125
0.0595,5.18505859375,-3.70361328125,-3.14306640625
0.06,4.86474609375,-4.78466796875,-1.90185546875
0.0605,4.54443359375,-5.42529296875,-0.94091796875
0.061,4.10400390625,-6.10595703125,0.02001953125
0.0615,2.90283203125,-6.14599609375,1.14111328125
0.062,1.58154296875,-6.34619140625,2.58251953125
0.0625,0.38037109375,-6.50634765625,4.02392578125
0.063,-0.62060546875,-6.26611328125,5.06494140625
0.0635,-1.30126953125,-6.34619140625,5.74560546875
0.064,-2.26220703125,-5.62548828125,6.22607421875
0.0645,-3.70361328125,-4.42431640625,6.46630859375
0.065,-4.82470703125,-3.18310546875,6.66650390625
0.0655,-5.70556640625,-1.98193359375,6.54638671875
0.066,-6.10595703125,-0.90087890625,6.30615234375
0.0665,-6.22607421875,0.06005859375,6.02587890625
0.067,-5.90576171875,1.14111328125,4.86474609375
0.0675,-5.66552734375,2.42236328125,3.62353515625
0.068,-5.54541015625,3.78369140625,2.42236328125
0.0685,-5.10498046875,4.62451171875,1.30126953125
0.069,-4.70458984375,5.30517578125,0.38037109375
0.0695,-4.02392578125,5.62548828125,-0.66064453125
0.07,-2.62255859375,5.74560546875,-1.94189453125
0.0705,-1.42138671875,5.90576171875,-3.34326171875
0.071,-0.18017578125,5.94580078125,-4.58447265625
0.0715,0.66064453125,5.82568359375,-5.38525390625
0.072,1.42138671875,5.78564453125,-6.10595703125
0.0725,2.58251953125,4.70458984375,-6.38623046875
0.073,3.90380859375,3.34326171875,-6.70654296875
0.0735,4.98486328125,2.06201171875,-6.90673828125
0.074,5.58544921875,0.94091796875,-6.66650390625
0.0745,5.90576171875,0.02001953125,-6.30615234375
0.075,5.90576171875,-1.02099609375,-5.78564453125
0.0755,5.50537109375,-2.22216796875,-4.50439453125
0.076,5.38525390625,-3.54345703125,-3.46337890625
0.0765,5.10498046875,-4.66455078125,-2.06201171875
0.077,4.70458984375,-5.50537109375,-1.14111328125
0.0775,4.34423828125,-6.10595703125,-0.22021484375
0.078,3.30322265625,-6.26611328125,0.86083984375
0.0785,1.98193359375,-6.38623046875,2.26220703125
0.079,0.70068359375,-6.58642578125,3.70361328125
0.0795,-0.58056640625,-6.46630859375,4.74462890625
0.08,-1.26123046875,-6.38623046875,5.50537109375
0.0805,-2.06201171875,-6.18603515625,6.06591796875
0.081,-3.22314453125,-4.98486328125,6.34619140625
0.0815,-4.54443359375,-3.74365234375,6.58642578125
0.082,-5.46533203125,-2.42236328125,6.66650390625
0.0825,-5.90576171875,-1.30126953125,6.38623046875
0.083,-6.22607421875,-0.50048828125,6.14599609375
0.0835,-6.02587890625,0.58056640625,5.26513671875
0.084,-5.74560546875,1.82177734375,4.10400390625
0.0845,-5.74560546875,3.02294921875,2.90283203125
0.085,-5.34521484375,4.14404296875,1.86181640625
0.0855,-5.02490234375,4.94482421875,0.74072265625
0.086,-4.50439453125,5.58544921875,0.02001953125
0.0865,-3.38330078125,5.62548828125,-1.26123046875
0.087,-2.06201171875,5.82568359375,-2.66259765625
0.0875,-0.70068359375,6.06591796875,-4.14404296875
0.088,0.26025390625,5.90576171875,-4.98486328125
0.0885,1.10107421875,5.86572265625,-5.90576171875
0.089,1.94189453125,5.26513671875,-6.30615234375
0.0895,3.30322265625,3.86376953125,-6.70654296875
0.09,4.46435546875,2.74267578125,-6.86669921875
0.0905,5.26513671875,1.42138671875,-6.86669921875
0.091,5.78564453125,0.38037109375,-6.46630859375
0.0915,5.98583984375,-0.54052734375,-6.22607421875
0.092,5.70556640625,-1.62158203125,-5.06494140625
0.0925,5.54541015625,-2.94287109375,-3.82373046875
0.093,5.38525390625,-4.34423828125,-2.50244140625
0.0935,5.02490234375,-5.18505859375,-1.58154296875
0.094,4.54443359375,-5.94580078125,-0.46044921875
0.0945,3.86376953125,-6.42626953125,0.42041015625
0.095,2.50244140625,-6.38623046875,1.90185546875
0.0955,1.14111328125,-6.74658203125,3.18310546875
0.096,-0.26025390625,-6.58642578125,4.70458984375
0.0965,-1.10107421875,-6.62646484375,5.38525390625
0.097,-1.78173828125,-6.42626953125,6.22607421875
0.0975,-2.98291015625,-5.46533203125,6.54638671875
0.098,-4.34423828125,-4.02392578125,6.78662109375
0.0985,-5.42529296875,-2.70263671875,7.02685546875
0.099,-6.02587890625,-1.58154296875,6.66650390625
0.0995,-6.38623046875,-0.58056640625,6.26611328125
0.1,-6.34619140625,0.50048828125,5.74560546875
0.1005,-6.02587890625,1.66162109375,4.50439453125
0.101,-5.82568359375,2.98291015625,3.26318359375
0.1015,-5.50537109375,4.26416015625,1.94189453125
0.102,-5.06494140625,5.02490234375,0.94091796875
0.1025,-4.62451171875,5.62548828125,0.02001953125
0.103,-3.54345703125,5.78564453125,-1.14111328125
0.1035,-2.18212890625,5.86572265625,-2.54248046875
0.104,-0.94091796875,6.06591796875,-4.02392578125
0.1045,0.26025390625,5.82568359375,-4.98486328125
0.105,1.02099609375,5.74560546875,-5.86572265625
0.1055,1.78173828125,5.42529296875,-6.46630859375
0.106,3.02294921875,4.26416015625,-6.66650390625
0.1065,4.22412109375,2.98291015625,-6.86669921875
0.107,5.22509765625,1.70166015625,-6.90673828125
0.1075,5.70556640625,0.66064453125,-6.46630859375
0.108,5.94580078125,-0.34033203125,-6.34619140625
0.1085,5.74560546875,-1.26123046875,-5.42529296875
0.109,5.42529296875,-2.54248046875,-4.26416015625
0.1095,5.30517578125,-3.70361328125,-3.02294921875
0.11,4.94482421875,-4.82470703125,-1.94189453125
0.1105,4.50439453125,-5.62548828125,-0.82080078125
0.111,4.06396484375,-6.14599609375,0.02001953125
0.1115,2.90283203125,-6.22607421875,1.10107421875
0.112,1.66162109375,-6.34619140625,2.42236328125
0.1125,0.46044921875,-6.54638671875,3.82373046875
0.113,-0.58056640625,-6.38623046875,4.70458984375
0.1135,-1.26123046875,-6.38623046875,5.46533203125
0.114,-2.06201171875,-5.86572265625,5.98583984375
0.1145,-3.26318359375,-4.66455078125,6.22607421875
0.115,-4.42431640625,-3.58349609375,6.46630859375
0.1155,-5.18505859375,-2.38232421875,6.42626953125
0.116,-5.78564453125,-1.34130859375,6.22607421875
0.1165,-5.94580078125,-0.50048828125,6.02587890625
0.117,-5.78564453125,0.46044921875,5.10498046875
0.1175,-5.62548828125,1.70166015625,4.02392578125
0.118,-5.54541015625,2.94287109375,2.98291015625
0.1185,-5.26513671875,3.86376953125,1.94189453125
0.119,-4.86474609375,4.74462890625,0.98095703125
0.1195,-4.42431640625,5.18505859375,0.02001953125
0.12,-3.22314453125,5.30517578125,-1.22119140625
0.1205,-2.18212890625,5.58544921875,-2.54248046875
0.121,-0.94091796875,5.62548828125,-3.82373046875
0.1215,0.06005859375,5.62548828125,-4.74462890625
0.122,0.70068359375,5.74560546875,-5.46533203125
0.1225,1.82177734375,4.98486328125,-5.90576171875
0.123,3.06298828125,3.86376953125,-6.22607421875
0.1235,4.18408203125,2.74267578125,-6.50634765625
0.124,4.90478515625,1.58154296875,-6.34619140625
0.1245,5.38525390625,0.66064453125,-6.26611328125
0.125,5.50537109375,-0.34033203125,-5.82568359375
0.1255,5.26513671875,-1.30126953125,-4.82470703125
0.126,5.14501953125,-2.54248046875,-3.86376953125
0.1265,4.98486328125,-3.74365234375,-2.70263671875
0.127,4.62451171875,-4.58447265625,-1.74169921875
0.1275,4.42431640625,-5.38525390625,-0.98095703125
0.128,3.58349609375,-5.62548828125,0.18017578125
0.1285,2.50244140625,-5.86572265625,1.30126953125
0.129,1.50146484375,-6.14599609375,2.66259765625
0.1295,0.34033203125,-6.14599609375,3.74365234375
0.13,-0.42041015625,-6.18603515625,4.58447265625
0.1305,-1.14111328125,-6.02587890625,5.34521484375
0.131,-2.34228515625,-5.22509765625,5.58544921875
0.1315,-3.46337890625,-4.10400390625,6.02587890625
0.132,-4.58447265625,-3.06298828125,6.14599609375
0.1325,-5.06494140625,-1.98193359375,6.02587890625
0.133,-5.50537109375,-1.18115234375,5.98583984375
0.1335,-5.50537109375,-0.30029296875,5.34521484375
0.134,-5.26513671875,0.86083984375,4.42431640625
0.1345,-5.38525390625,1.90185546875,3.54345703125
0.135,-5.10498046875,3.02294921875,2.46240234375
0.1355,-4.86474609375,3.86376953125,1.50146484375
0.136,-4.62451171875,4.54443359375,0.66064453125
0.1365,-3.70361328125,4.74462890625,-0.38037109375
0.137,-2.70263671875,5.02490234375,-1.54150390625
0.1375,-1.66162109375,5.34521484375,-2.82275390625
0.138,-0.74072265625,5.46533203125,-3.70361328125
0.1385,0.10009765625,5.58544921875,-4.66455078125
0.139,0.94091796875,5.30517578125,-5.18505859375
0.1395,2.02197265625,4.34423828125,-5.62548828125
0.14,3.18310546875,3.42333984375,-6.06591796875
0.1405,4.02392578125,2.26220703125,-6.10595703125
0.141,4.66455078125,1.30126953125,-6.10595703125
0.1415,5.02490234375,0.54052734375,-5.94580078125
0.142,4.94482421875,-0.46044921875,-5.14501953125
0.1425,4.86474609375,-1.54150390625,-4.34423828125
0.143,4.94482421875,-2.66259765625,-3.38330078125
0.1435,4.70458984375,-3.66357421875,-2.54248046875
0.144,4.50439453125,-4.50439453125,-1.62158203125
0.1445,4.10400390625,-5.14501953125,-0.78076171875
0.145,3.18310546875,-5.34521484375,0.30029296875
0.1455,2.26220703125,-5.70556640625,1.54150390625
0.146,1.18115234375,-5.86572265625,2.66259765625
0.1465,0.42041015625,-5.94580078125,3.66357421875
0.147,-0.42041015625,-6.14599609375,4.50439453125
0.1475,-1.30126953125,-5.58544921875,5.02490234375
0.148,-2.50244140625,-4.70458984375,5.42529296875
0.1485,-3.54345703125,-3.78369140625,5.78564453125
0.149,-4.34423828125,-2.74267578125,5.82568359375
0.1495,-4.94482421875,-1.90185546875,5.78564453125
0.15,-5.22509765625,-1.14111328125,5.58544921875
0.1505,-5.14501953125,-0.26025390625,4.82470703125
0.151,-5.10498046875,0.94091796875,4.10400390625
0.1515,-5.10498046875,2.06201171875,3.18310546875
0.152,-4.90478515625,3.02294921875,2.26220703125
0.1525,-4.78466796875,3.82373046875,1.46142578125
0.153,-4.18408203125,4.18408203125,0.58056640625
0.1535,-3.34326171875,4.54443359375,-0.62060546875
0.154,-2.50244140625,5.02490234375,-1.78173828125
0.1545,-1.46142578125,5.10498046875,-2.86279296875
0.155,-0.78076171875,5.30517578125,-3.78369140625
0.1555,0.14013671875,5.42529296875,-4.62451171875
0.156,1.10107421875,4.66455078125,-5.02490234375
0.1565,2.26220703125,3.86376953125,-5.50537109375
0.157,3.26318359375,2.90283203125,-5.78564453125
0.1575,3.98388671875,1.94189453125,-5.78564453125
0.158,4.54443359375,1.18115234375,-5.90576171875
0.1585,4.74462890625,0.34033203125,-5.42529296875
0.159,4.66455078125,-0.74072265625,-4.74462890625
0.1595,4.82470703125,-1.78173828125,-3.98388671875
0.16,4.66455078125,-2.82275390625,-3.06298828125
0.1605,4.50439453125,-3.82373046875,-2.26220703125
0.161,4.38427734375,-4.58447265625,-1.34130859375
0.1615,3.54345703125,-4.98486328125,-0.58056640625
0.162,2.74267578125,-5.26513671875,0.82080078125
0.1625,1.86181640625,-5.62548828125,1.98193359375
0.163,0.98095703125,-5.78564453125,2.94287109375
0.1635,0.30029296875,-6.02587890625,3.94384765625
0.164,-0.70068359375,-5.90576171875,4.58447265625
0.1645,-1.74169921875,-5.02490234375,5.02490234375
0.165,-2.90283203125,-4.26416015625,5.42529296875
0.1655,-3.86376953125,-3.26318359375,5.66552734375
0.166,-4.54443359375,-2.30224609375,5.62548828125
0.1665,-5.10498046875,-1.58154296875,5.70556640625
0.167,-5.02490234375,-0.66064453125,5.06494140625
0.1675,-5.10498046875,0.42041015625,4.34423828125
0.168,-5.10498046875,1.62158203125,3.58349609375
0.1685,-4.98486328125,2.54248046875,2.70263671875
0.169,-4.82470703125,3.50341796875,1.90185546875
0.1695,-4.42431640625,4.14404296875,0.94091796875
0.17,-3.62353515625,4.46435546875,0.02001953125
0.1705,-2.78271484375,4.82470703125,-1.38134765625
0.171,-1.82177734375,5.10498046875,-2.50244140625
0.1715,-1.10107421875,5.22509765625,-3.54345703125
0.172,-0.30029296875,5.42529296875,-4.50439453125
0.1725,0.78076171875,4.94482421875,-4.94482421875
0.173,2.06201171875,4.02392578125,-5.46533203125
0.1735,3.18310546875,3.18310546875,-5.78564453125
0.174,3.98388671875,2.18212890625,-5.90576171875
0.1745,4.62451171875,1.30126953125,-5.90576171875
0.175,4.90478515625,0.54052734375,-5.62548828125
0.1755,4.74462890625,-0.62060546875,-4.94482421875
0.176,4.82470703125,-1.58154296875,-4.02392578125
0.1765,4.66455078125,-2.98291015625,-3.18310546875
0.177,4.54443359375,-3.78369140625,-2.18212890625
0.1775,4.34423828125,-4.66455078125,-1.46142578125
0.178,3.70361328125,-5.06494140625,-0.50048828125
0.1785,2.86279296875,-5.18505859375,0.78076171875
0.179,1.82177734375,-5.74560546875,1.94189453125
0.1795,0.98095703125,-5.74560546875,3.02294921875
0.18,0.18017578125,-6.10595703125,3.86376953125
0.1805,-0.66064453125,-6.06591796875,4.66455078125
0.181,-1.62158203125,-5.18505859375,5.10498046875
0.1815,-2.86279296875,-4.34423828125,5.58544921875
0.182,-3.86376953125,-3.18310546875,5.82568359375
0.1825,-4.62451171875,-2.26220703125,5.86572265625
0.183,-5.06494140625,-1.42138671875,5.82568359375
0.1835,-5.18505859375,-0.62060546875,5.30517578125
0.184,-5.10498046875,0.50048828125,4.46435546875
0.1845,-5.18505859375,1.58154296875,3.54345703125
0.185,-5.10498046875,2.58251953125,2.66259765625
0.1855,-4.86474609375,3.50341796875,1.62158203125
0.186,-4.62451171875,4.26416015625,0.94091796875
0.1865,-3.78369140625,4.50439453125,-0.14013671875
0.187,-2.86279296875,4.82470703125,-1.34130859375
0.1875,-1.78173828125,5.26513671875,-2.58251953125
0.188,-0.98095703125,5.26513671875,-3.58349609375
0.1885,-0.18017578125,5.50537109375,-4.46435546875
0.189,0.82080078125,5.22509765625,-5.14501953125
0.1895,1.98193359375,4.22412109375,-5.50537109375
0.19,3.18310546875,3.34326171875,-5.90576171875
0.1905,4.10400390625,2.22216796875,-6.10595703125
0.191,4.66455078125,1.26123046875,-5.94580078125
0.1915,5.10498046875,0.50048828125,-5.86572265625
0.192,4.86474609375,-0.62060546875,-5.10498046875
0.1925,4.94482421875,-1.78173828125,-4.18408203125
0.193,4.82470703125,-3.06298828125,-3.22314453125
0.1935,4.74462890625,-3.90380859375,-2.34228515625
0.194,4.46435546875,-4.74462890625,-1.42138671875
0.1945,4.02392578125,-5.26513671875,-0.58056640625
0.195,2.98291015625,-5.42529296875,0.62060546875
0.1955,1.94189453125,-5.78564453125,1.94189453125
0.196,0.94091796875,-5.90576171875,3.18310546875
0.1965,0.02001953125,-6.10595703125,4.10400390625
0.197,-0.66064453125,-6.10595703125,4.94482421875
0.1975,-1.78173828125,-5.50537109375,5.38525390625
0.198,-2.98291015625,-4.34423828125,5.74560546875
0.1985,-4.18408203125,-3.34326171875,6.10595703125
0.199,-4.82470703125,-2.26220703125,6.06591796875
