wavelength,x,y,z
0.0,4.4893798828125,15.179809570312,-19.253784179688
0.0005,-0.4754638671875,18.182739257812,-17.612182617188
0.001,-3.9989013671875,20.104614257812,-16.170776367188
0.0015,-6.9617919921875,20.985473632812,-14.409057617188
0.002,-9.7645263671875,20.505004882812,-11.245971679688
0.0025,-13.207885742188,19.784301757812,-7.2020263671875
0.003,-16.611206054688,18.703247070312,-2.8778076171875
0.0035,-19.774291992188,17.021606445312,1.8868408203125
0.004,-21.015502929688,15.099731445312,4.8497314453125
0.0045,-21.135620117188,12.577270507812,7.6925048828125
0.005,-20.895385742188,9.4942626953125,10.415161132812
0.0055,-20.014526367188,4.5694580078125,14.579223632812
0.006,-18.733276367188,0.3253173828125,17.582153320312
0.0065,-17.452026367188,-3.3983154296875,19.864379882812
0.007,-15.490112304688,-6.3612060546875,21.105590820312
0.0075,-12.206909179688,-9.1639404296875,20.625122070312
0.008,-8.4432373046875,-12.527221679688,20.224731445312
0.0085,-3.1981201171875,-16.210815429688,18.943481445312
0.009,1.9268798828125,-19.213745117188,17.101684570312
0.0095,5.0098876953125,-20.494995117188,15.500122070312
0.01,7.8526611328125,-20.975463867188,13.418090820312
0.0105,10.695434570312,-20.655151367188,10.295043945312
0.011,14.659301757812,-19.494018554688,5.4903564453125
0.0115,17.782348632812,-18.252807617188,1.2862548828125
0.012,20.384887695312,-16.691284179688,-2.9178466796875
0.0125,21.145629882812,-14.569213867188,-5.7606201171875
0.013,20.945434570312,-11.526245117188,-8.6434326171875
0.0135,20.625122070312,-8.0828857421875,-11.806518554688
0.014,19.784301757812,-3.4383544921875,-15.530151367188
0.0145,18.463012695312,1.1260986328125,-18.533081054688
0.015,16.781372070312,4.3292236328125,-20.214721679688
0.0155,14.659301757812,7.1719970703125,-21.135620117188
0.016,11.055786132812,10.094848632812,-20.575073242188
0.0165,6.1710205078125,14.058715820312,-19.734252929688
0.017,1.4063720703125,17.301879882812,-18.533081054688
0.0175,-3.3182373046875,20.064575195312,-16.811401367188
0.018,-6.1209716796875,20.945434570312,-14.969604492188
0.0185,-8.9637451171875,21.025512695312,-12.086791992188
0.019,-12.166870117188,20.545043945312,-9.0438232421875
0.0195,-16.130737304688,19.263793945312,-4.0389404296875
0.02,-19.373901367188,17.742309570312,0.6856689453125
0.0205,-21.295776367188,16.100708007812,4.2891845703125
0.021,-21.936401367188,13.738403320312,7.0919189453125
0.0215,-21.495971679688,10.295043945312,10.214965820312
0.022,-20.815307617188,6.0909423828125,13.938598632812
0.0225,-19.614135742188,1.6466064453125,17.301879882812
0.023,-18.412963867188,-2.8778076171875,20.384887695312
0.0235,-16.330932617188,-5.9608154296875,21.465942382812
0.024,-13.848510742188,-8.8436279296875,21.866333007812
0.0245,-9.8045654296875,-12.206909179688,21.265747070312
0.025,-4.3192138671875,-16.090698242188,19.824340820312
0.0255,0.6456298828125,-19.213745117188,18.262817382812
0.026,4.8096923828125,-21.335815429688,16.581176757812
0.0265,7.8927001953125,-21.656127929688,14.338989257812
0.027,10.855590820312,-21.375854492188,11.095825195312
0.0275,14.258911132812,-20.695190429688,7.0518798828125
0.028,17.862426757812,-19.253784179688,2.2471923828125
0.0285,20.865356445312,-17.452026367188,-2.5574951171875
0.029,22.066528320312,-15.530151367188,-5.6805419921875
0.0295,22.306762695312,-12.807495117188,-8.6033935546875
0.03,21.786254882812,-8.8436279296875,-11.846557617188
0.0305,20.785278320312,-4.6395263671875,-15.890502929688
0.031,19.504028320312,0.1651611328125,-18.733276367188
0.0315,17.942504882812,4.2891845703125,-21.415893554688
0.032,15.420043945312,7.1719970703125,-21.856323242188
0.0325,12.296997070312,10.214965820312,-21.816284179688
0.033,7.7725830078125,13.898559570312,-21.175659179688
0.0335,2.3673095703125,17.502075195312,-19.574096679688
0.034,-2.5574951171875,20.384887695312,-17.652221679688
0.0345,-5.8006591796875,22.066528320312,-15.730346679688
0.035,-8.9237060546875,21.986450195312,-13.568237304688
0.0355,-12.126831054688,21.345825195312,-9.9246826171875
0.036,-15.810424804688,20.304809570312,-5.4002685546875
0.0365,-19.173706054688,18.863403320312,-0.6356201171875
0.037,-21.816284179688,16.941528320312,3.8887939453125
0.0375,-22.416870117188,14.579223632812,6.7716064453125
0.038,-22.376831054688,11.456176757812,9.8946533203125
0.0385,-21.776245117188,7.5323486328125,13.618286132812
0.039,-20.655151367188,2.6475830078125,17.101684570312
0.0395,-19.173706054688,-1.7967529296875,20.024536132812
0.04,-17.492065429688,-5.5604248046875,22.106567382812
0.0405,-14.809448242188,-8.4031982421875,22.426879882812
0.041,-11.085815429688,-11.606323242188,21.866333007812
0.0415,-6.2811279296875,-15.410034179688,20.985473632812
0.042,-0.6356201171875,-18.933471679688,19.223754882812
0.0425,4.0089111328125,-21.495971679688,17.301879882812
0.043,7.0118408203125,-22.136596679688,15.380004882812
0.0435,10.054809570312,-22.256713867188,12.657348632812
0.044,13.538208007812,-21.375854492188,8.4532470703125
0.0445,17.061645507812,-20.134643554688,3.8487548828125
0.045,20.424926757812,-18.533081054688,-1.0360107421875
0.0455,22.506958007812,-16.531127929688,-5.0799560546875
0.046,22.947387695312,-13.648315429688,-7.8826904296875
0.0465,22.226684570312,-10.445190429688,-11.005737304688
0.047,21.626098632812,-5.7606201171875,-14.889526367188
0.0475,20.344848632812,-1.2762451171875,-18.292846679688
0.048,18.703247070312,3.0479736328125,-20.975463867188
0.0485,16.701293945312,6.3311767578125,-22.256713867188
0.049,13.778442382812,9.2940673828125,-22.496948242188
0.0495,9.2940673828125,12.937622070312,-21.656127929688
0.05,4.6094970703125,16.661254882812,-20.414916992188
0.0505,-0.9158935546875,20.024536132812,-18.653198242188
0.051,-5.2801513671875,21.946411132812,-16.811401367188
0.0515,-8.0028076171875,22.146606445312,-14.529174804688
0.052,-11.165893554688,22.066528320312,-11.606323242188
0.0525,-15.089721679688,21.065551757812,-6.8016357421875
0.053,-18.372924804688,19.584106445312,-2.1571044921875
0.0535,-21.495971679688,17.862426757812,2.5274658203125
0.054,-23.377807617188,15.780395507812,6.0909423828125
0.0545,-22.697143554688,12.937622070312,9.0938720703125
0.055,-22.456909179688,8.9737548828125,12.617309570312
0.0555,-21.536010742188,4.2091064453125,16.300903320312
0.056,-20.214721679688,-0.5555419921875,19.744262695312
0.0565,-18.292846679688,-4.6795654296875,22.066528320312
0.057,-16.010620117188,-7.6424560546875,22.707153320312
0.0575,-12.967651367188,-10.765502929688,22.787231445312
0.058,-7.3221435546875,-14.529174804688,21.626098632812
0.0585,-2.4373779296875,-17.892456054688,20.104614257812
0.059,2.4874267578125,-20.975463867188,18.302856445312
0.0595,6.3712158203125,-22.617065429688,16.380981445312
0.06,9.2540283203125,-22.416870117188,13.498168945312
0.0605,12.377075195312,-22.136596679688,10.375122070312
0.061,16.501098632812,-20.895385742188,5.2501220703125
0.0615,19.784301757812,-19.293823242188,0.2852783203125
0.062,22.747192382812,-16.931518554688,-4.1190185546875
0.0625,23.027465820312,-15.089721679688,-7.0418701171875
0.063,22.947387695312,-11.806518554688,-10.124877929688
0.0635,22.186645507812,-7.2420654296875,-14.128784179688
0.064,21.105590820312,-2.8778076171875,-17.331909179688
0.0645,19.664184570312,1.7266845703125,-20.535034179688
0.065,17.622192382812,5.6505126953125,-22.536987304688
0.0655,14.779418945312,8.3731689453125,-22.577026367188
0.066,11.936645507812,11.896606445312,-22.536987304688
0.0665,5.6505126953125,15.980590820312,-21.135620117188
0.067,0.6055908203125,19.183715820312,-19.413940429688
0.0675,-3.8787841796875,21.505981445312,-17.652221679688
0.068,-7.2821044921875,22.707153320312,-15.730346679688
0.0685,-10.244995117188,22.266723632812,-12.567260742188
0.069,-13.808471679688,21.586059570312,-8.6434326171875
0.0695,-17.371948242188,20.344848632812,-3.9989013671875
0.07,-21.135620117188,18.663208007812,1.1661376953125
0.0705,-22.777221679688,16.541137695312,5.0499267578125
0.071,-23.017456054688,14.018676757812,8.0128173828125
0.0715,-22.937377929688,10.735473632812,11.095825195312
0.072,-21.896362304688,5.5704345703125,15.380004882812
0.0725,-20.655151367188,1.1260986328125,18.543090820312
0.073,-19.133666992188,-3.0780029296875,21.265747070312
0.0735,-17.011596679688,-6.6815185546875,22.867309570312
0.074,-14.088745117188,-9.4041748046875,22.627075195312
0.0745,-10.084838867188,-12.967651367188,22.146606445312
0.075,-4.5594482421875,-16.851440429688,20.825317382812
0.0755,1.0059814453125,-20.134643554688,18.863403320312
0.076,4.9698486328125,-21.896362304688,16.941528320312
0.0765,7.9727783203125,-22.577026367188,14.859497070312
0.077,11.015747070312,-22.296752929688,11.696411132812
0.0775,14.939575195312,-21.215698242188,6.6915283203125
0.078,18.102661132812,-20.054565429688,2.2471923828125
0.0785,21.546020507812,-18.132690429688,-2.5174560546875
0.079,22.787231445312,-15.890502929688,-5.9207763671875
0.0795,22.546997070312,-12.847534179688,-8.7235107421875
0.08,22.386840820312,-9.4842529296875,-12.046752929688
0.0805,21.225708007812,-4.4793701171875,-16.050659179688
0.081,19.824340820312,0.2852783203125,-19.253784179688
0.0815,17.982543945312,3.9288330078125,-21.375854492188
0.082,15.940551757812,7.0518798828125,-22.617065429688
0.0825,12.577270507812,10.295043945312,-22.136596679688
0.083,7.6524658203125,14.138793945312,-21.215698242188
0.0835,2.8077392578125,17.502075195312,-19.934448242188
0.084,-2.5174560546875,20.625122070312,-18.092651367188
0.0845,-6.0809326171875,21.906372070312,-16.050659179688
0.085,-8.8436279296875,21.946411132812,-13.488159179688
0.0855,-11.566284179688,21.786254882812,-10.645385742188
0.086,-15.890502929688,20.344848632812,-5.2801513671875
0.0865,-19.213745117188,18.823364257812,-0.5155029296875
0.087,-21.776245117188,17.141723632812,3.6085205078125
0.0875,-22.777221679688,14.859497070312,6.7716064453125
0.088,-22.256713867188,11.536254882812,9.6944580078125
0.0885,-21.816284179688,7.4122314453125,13.378051757812
0.089,-20.975463867188,2.8477783203125,16.941528320312
0.0895,-19.694213867188,-1.9569091796875,20.264770507812
0.09,-16.931518554688,-5.2000732421875,21.746215820312
0.0905,-14.889526367188,-8.1629638671875,22.266723632812
0.091,-11.686401367188,-11.165893554688,22.026489257812
0.0915,-5.8006591796875,-15.450073242188,20.585083007812
0.092,-0.9559326171875,-18.453002929688,19.023559570312
0.0925,3.5284423828125,-20.975463867188,17.341918945312
0.093,6.7315673828125,-22.056518554688,15.339965820312
0.0935,9.4542236328125,-21.656127929688,12.296997070312
0.094,13.057739257812,-21.175659179688,8.7735595703125
0.0945,16.741333007812,-19.894409179688,3.8487548828125
0.095,19.944458007812,-18.012573242188,-1.0360107421875
0.0955,21.465942382812,-16.330932617188,-4.3592529296875
0.096,22.066528320312,-13.888549804688,-7.2420654296875
0.0965,21.546020507812,-10.765502929688,-10.044799804688
0.097,20.545043945312,-6.0408935546875,-14.128784179688
0.0975,19.544067382812,-1.7967529296875,-16.931518554688
0.098,18.623168945312,2.5274658203125,-19.894409179688
0.0985,16.380981445312,5.6905517578125,-21.175659179688
0.099,13.418090820312,8.4132080078125,-21.095581054688
0.0995,10.054809570312,11.536254882812,-21.015502929688
0.1,4.4093017578125,15.660278320312,-19.574096679688
0.1005,-0.6756591796875,18.623168945312,-17.892456054688
0.101,-3.9188232421875,20.464965820312,-16.370971679688
0.1015,-6.4813232421875,21.265747070312,-14.649291992188
0.102,-9.5643310546875,20.665161132812,-11.526245117188
0.1025,-13.368041992188,19.864379882812,-7.2020263671875
0.103,-16.851440429688,18.863403320312,-2.8778076171875
0.1035,-19.934448242188,17.221801757812,1.7667236328125
0.104,-21.015502929688,15.339965820312,4.7296142578125
0.1045,-21.215698242188,12.657348632812,7.4923095703125
0.105,-21.055541992188,9.4542236328125,10.375122070312
0.1055,-20.134643554688,4.5694580078125,14.659301757812
0.106,-18.693237304688,0.5255126953125,17.622192382812
0.1065,-17.532104492188,-3.1580810546875,19.864379882812
0.107,-15.690307617188,-6.1209716796875,21.065551757812
0.1075,-12.367065429688,-8.9637451171875,20.545043945312
0.108,-8.2830810546875,-12.527221679688,20.184692382812
0.1085,-3.3182373046875,-16.210815429688,18.903442382812
0.109,2.0469970703125,-18.933471679688,17.141723632812
0.1095,4.7696533203125,-20.775268554688,15.620239257812
0.11,7.4122314453125,-21.015502929688,13.458129882812
0.1105,10.415161132812,-20.494995117188,10.455200195312
0.111,14.579223632812,-19.333862304688,5.4903564453125
0.1115,17.702270507812,-18.132690429688,1.2462158203125
0.112,20.184692382812,-16.651245117188,-2.7176513671875
0.1125,20.985473632812,-14.609252929688,-5.4803466796875
0.113,20.464965820312,-11.526245117188,-8.1229248046875
0.1135,20.424926757812,-7.8426513671875,-11.526245117188
0.114,19.343872070312,-3.5584716796875,-15.289916992188
0.1145,18.222778320312,0.9659423828125,-18.332885742188
0.115,16.621215820312,4.0889892578125,-19.894409179688
0.1155,14.459106445312,6.8917236328125,-20.735229492188
0.116,11.015747070312,9.8546142578125,-20.294799804688
0.1165,5.9708251953125,13.858520507812,-19.293823242188
0.117,1.1260986328125,17.101684570312,-18.012573242188
0.1175,-3.0780029296875,19.584106445312,-16.851440429688
0.118,-5.9608154296875,20.344848632812,-14.809448242188
0.1185,-8.7235107421875,20.344848632812,-12.126831054688
0.119,-11.846557617188,20.024536132812,-8.8436279296875
0.1195,-15.650268554688,18.783325195312,-4.0789794921875
0.12,-18.773315429688,17.301879882812,0.5655517578125
0.1205,-20.414916992188,15.740356445312,3.8087158203125
0.121,-21.175659179688,13.578247070312,6.6915283203125
0.1215,-20.655151367188,10.255004882812,9.4942626953125
0.122,-19.774291992188,6.0909423828125,13.177856445312
0.1225,-19.133666992188,1.7667236328125,16.421020507812
0.123,-17.852416992188,-2.3572998046875,19.383911132812
0.1235,-15.850463867188,-5.3602294921875,20.264770507812
0.124,-13.328002929688,-7.9627685546875,20.665161132812
0.1245,-9.8045654296875,-11.245971679688,20.224731445312
0.125,-4.2391357421875,-15.249877929688,18.743286132812
0.1255,0.3253173828125,-17.812377929688,17.502075195312
0.126,4.0889892578125,-19.894409179688,15.940551757812
0.1265,6.6915283203125,-20.535034179688,13.938598632812
0.127,9.6143798828125,-20.054565429688,10.935668945312
0.1275,13.017700195312,-19.494018554688,7.0518798828125
0.128,16.340942382812,-18.332885742188,2.6876220703125
0.1285,19.383911132812,-16.651245117188,-1.7967529296875
0.129,20.304809570312,-14.609252929688,-4.3592529296875
0.1295,20.505004882812,-12.367065429688,-7.3621826171875
0.13,20.344848632812,-9.1639404296875,-10.285034179688
0.1305,19.223754882812,-4.5594482421875,-13.848510742188
0.131,18.262817382812,-0.5555419921875,-16.851440429688
0.1315,16.941528320312,3.0079345703125,-19.293823242188
0.132,14.939575195312,5.7706298828125,-19.934448242188
0.1325,11.856567382812,8.6134033203125,-19.814331054688
0.133,7.9327392578125,12.056762695312,-19.253784179688
0.1335,2.8878173828125,15.580200195312,-18.693237304688
0.134,-1.7567138671875,18.382934570312,-16.531127929688
0.1345,-4.4793701171875,19.584106445312,-15.289916992188
0.135,-7.2420654296875,20.024536132812,-13.127807617188
0.1355,-10.204956054688,19.504028320312,-10.004760742188
0.136,-13.808471679688,18.623168945312,-5.7205810546875
0.1365,-16.811401367188,17.622192382812,-1.3563232421875
0.137,-19.534057617188,15.940551757812,2.5675048828125
0.1375,-20.134643554688,14.018676757812,5.2100830078125
0.138,-20.254760742188,11.336059570312,8.0928955078125
0.1385,-19.894409179688,7.5723876953125,11.296020507812
0.139,-18.933471679688,3.3282470703125,14.899536132812
0.1395,-17.932495117188,-0.8358154296875,17.742309570312
0.14,-16.531127929688,-3.9989013671875,19.584106445312
0.1405,-14.248901367188,-6.7215576171875,20.144653320312
0.141,-10.885620117188,-9.5242919921875,19.624145507812
0.1415,-6.4012451171875,-13.207885742188,18.823364257812
0.142,-1.3963623046875,-16.531127929688,17.662231445312
0.1425,2.7276611328125,-19.053588867188,16.100708007812
0.143,5.2901611328125,-19.814331054688,14.539184570312
0.1435,8.1729736328125,-19.934448242188,12.136840820312
0.144,11.656372070312,-19.373901367188,8.4532470703125
0.1445,14.979614257812,-18.132690429688,4.2091064453125
0.145,17.902465820312,-17.091674804688,-0.1951904296875
0.1455,19.904418945312,-15.690307617188,-3.8387451171875
0.146,20.024536132812,-13.448120117188,-6.1209716796875
0.1465,19.904418945312,-10.204956054688,-8.9637451171875
0.147,19.383911132812,-6.0408935546875,-12.447143554688
0.1475,18.382934570312,-1.9569091796875,-15.770385742188
0.148,17.221801757812,2.0870361328125,-18.332885742188
0.1485,15.099731445312,4.6094970703125,-19.413940429688
0.149,13.097778320312,7.4923095703125,-19.894409179688
0.1495,9.0938720703125,10.495239257812,-19.894409179688
0.15,4.5294189453125,14.218872070312,-18.212768554688
0.1505,-0.2752685546875,17.221801757812,-16.971557617188
0.151,-3.9188232421875,19.223754882812,-15.490112304688
0.1515,-6.1610107421875,19.544067382812,-13.608276367188
0.152,-9.1239013671875,19.463989257812,-11.085815429688
0.1525,-12.246948242188,18.743286132812,-7.0819091796875
0.153,-15.850463867188,17.662231445312,-2.7176513671875
0.1535,-18.573120117188,16.180786132812,1.2462158203125
0.154,-19.814331054688,14.579223632812,4.2891845703125
0.1545,-20.054565429688,12.176879882812,6.8917236328125
0.155,-19.894409179688,8.6934814453125,10.174926757812
0.1555,-18.893432617188,4.5294189453125,13.458129882812
0.156,-18.012573242188,0.6055908203125,16.741333007812
0.1565,-17.051635742188,-3.1981201171875,19.183715820312
0.157,-14.689331054688,-5.6405029296875,19.544067382812
0.1575,-12.206909179688,-8.6834716796875,19.904418945312
0.158,-7.6824951171875,-12.206909179688,19.063598632812
0.1585,-2.7977294921875,-15.169799804688,17.662231445312
0.159,1.2862548828125,-17.892456054688,16.380981445312
0.1595,4.4893798828125,-19.534057617188,14.899536132812
0.16,7.0518798828125,-19.373901367188,12.857543945312
0.1605,9.8946533203125,-19.053588867188,9.9346923828125
0.161,13.458129882812,-18.533081054688,5.6104736328125
0.1615,16.661254882812,-17.411987304688,1.3262939453125
0.162,18.743286132812,-16.010620117188,-2.4774169921875
0.1625,19.624145507812,-13.848510742188,-4.9197998046875
0.163,19.584106445312,-11.245971679688,-7.5623779296875
0.1635,19.063598632812,-7.3221435546875,-11.125854492188
0.164,18.102661132812,-3.4783935546875,-14.088745117188
0.1645,17.301879882812,0.2852783203125,-16.971557617188
0.165,15.980590820312,3.7286376953125,-19.173706054688
0.1655,13.818481445312,6.5313720703125,-19.053588867188
0.166,10.535278320312,8.9737548828125,-19.133666992188
0.1665,6.1309814453125,12.737426757812,-18.533081054688
0.167,1.4864501953125,16.060668945312,-17.051635742188
0.1675,-2.5174560546875,18.222778320312,-15.730346679688
0.168,-4.9197998046875,19.023559570312,-14.529174804688
0.1685,-7.6824951171875,19.143676757812,-12.447143554688
0.169,-11.005737304688,18.623168945312,-8.2830810546875
0.1695,-14.128784179688,17.702270507812,-4.7596435546875
0.17,-17.091674804688,16.661254882812,-0.1951904296875
0.1705,-19.173706054688,15.139770507812,3.2481689453125
0.171,-19.453979492188,12.977661132812,5.6905517578125
0.1715,-19.654174804688,10.255004882812,8.4932861328125
0.172,-18.573120117188,6.0509033203125,12.096801757812
0.1725,-18.092651367188,1.9268798828125,15.179809570312
0.173,-16.931518554688,-1.6766357421875,17.862426757812
0.1735,-15.410034179688,-4.1990966796875,19.504028320312
0.174,-13.087768554688,-7.2020263671875,19.463989257812
0.1745,-9.2440185546875,-10.525268554688,18.983520507812
0.175,-4.7996826171875,-13.808471679688,18.102661132812
0.1755,0.1251220703125,-16.971557617188,16.701293945312
0.176,3.7686767578125,-18.533081054688,15.380004882812
0.1765,5.9307861328125,-19.173706054688,13.818481445312
0.177,8.6534423828125,-19.494018554688,11.135864257812
0.1775,12.577270507812,-18.733276367188,6.4913330078125
0.178,15.460083007812,-17.732299804688,2.6876220703125
