wavelength,x,y,z
0.0,-17.331909179688,-6.4012451171875,-2.9578857421875
0.0005,-14.889526367188,-10.084838867188,-4.5194091796875
0.001,-11.165893554688,-13.047729492188,-5.3602294921875
0.0015,-7.5623779296875,-15.209838867188,-6.1209716796875
0.002,-2.1170654296875,-17.211791992188,-6.1209716796875
0.0025,2.6075439453125,-19.934448242188,-6.5614013671875
0.003,7.3321533203125,-21.095581054688,-6.1610107421875
0.0035,10.174926757812,-22.697143554688,-6.4412841796875
0.004,13.418090820312,-21.295776367188,-5.2401123046875
0.0045,15.500122070312,-19.814331054688,-3.5985107421875
0.005,17.782348632812,-17.171752929688,-0.5155029296875
0.0055,20.424926757812,-15.209838867188,3.0079345703125
0.006,21.025512695312,-12.407104492188,-7.7225341796875
0.0065,21.385864257812,-9.6444091796875,-10.765502929688
0.007,20.184692382812,-6.6815185546875,-12.807495117188
0.0075,17.662231445312,-1.6365966796875,-15.169799804688
0.008,15.860473632812,2.8477783203125,-17.932495117188
0.0085,12.777465820312,7.7325439453125,-19.734252929688
0.009,11.456176757812,10.655395507812,-21.295776367188
0.0095,6.7315673828125,13.938598632812,-19.814331054688
0.01,3.4483642578125,15.620239257812,-18.332885742188
0.0105,-1.9969482421875,17.782348632812,-15.329956054688
0.011,-6.5614013671875,20.745239257812,-13.728393554688
0.0115,-10.645385742188,21.185668945312,-10.244995117188
0.012,-13.328002929688,22.026489257812,-8.6434326171875
0.0125,-15.570190429688,20.585083007812,-4.9998779296875
0.013,-17.972534179688,18.382934570312,-0.6356201171875
0.0135,-20.054565429688,15.980590820312,4.0089111328125
0.014,-22.096557617188,13.297973632812,8.5733642578125
0.0145,-22.817260742188,11.376098632812,11.095825195312
0.015,-22.096557617188,7.1719970703125,14.579223632812
0.0155,-20.615112304688,4.4893798828125,15.780395507812
0.016,-17.692260742188,-1.1561279296875,18.222778320312
0.0165,-15.970581054688,-5.8406982421875,20.985473632812
0.017,-12.246948242188,-10.285034179688,21.626098632812
0.0175,-11.045776367188,-12.807495117188,22.707153320312
0.018,-6.1209716796875,-15.450073242188,20.424926757812
0.0185,-2.1571044921875,-17.291870117188,18.262817382812
0.019,3.4884033203125,-18.733276367188,15.380004882812
0.0195,8.1329345703125,-22.136596679688,13.177856445312
0.02,11.135864257812,-22.496948242188,10.575317382812
0.0205,14.539184570312,-22.336791992188,7.0919189453125
0.021,15.860473632812,-20.815307617188,4.4093017578125
0.0215,18.663208007812,-18.212768554688,-1.1561279296875
0.022,21.025512695312,-15.970581054688,-5.5203857421875
0.0225,21.906372070312,-12.767456054688,-10.244995117188
0.023,22.907348632812,-11.005737304688,-11.566284179688
0.0235,21.265747070312,-6.6414794921875,-15.089721679688
0.024,19.704223632812,-3.5985107421875,-16.411010742188
0.0245,16.901489257812,1.8868408203125,-19.093627929688
0.025,14.779418945312,7.0518798828125,-22.016479492188
0.0255,11.536254882812,10.495239257812,-22.016479492188
0.026,9.0137939453125,13.738403320312,-22.496948242188
0.0265,4.7296142578125,15.540161132812,-20.775268554688
0.027,-0.3553466796875,17.902465820312,-17.371948242188
0.0275,-4.9998779296875,19.984497070312,-15.049682617188
0.028,-10.405151367188,22.146606445312,-11.686401367188
0.0285,-12.447143554688,22.506958007812,-10.204956054688
0.029,-16.010620117188,21.465942382812,-5.6405029296875
0.0295,-17.211791992188,19.704223632812,-2.7576904296875
0.03,-19.934448242188,16.941528320312,2.7276611328125
0.0305,-22.376831054688,14.739379882812,7.2921142578125
0.031,-22.737182617188,11.215942382812,11.095825195312
0.0315,-23.417846679688,9.3741455078125,13.618286132812
0.032,-21.135620117188,4.8497314453125,15.740356445312
0.0325,-19.093627929688,0.7657470703125,17.742309570312
0.033,-16.571166992188,-4.2791748046875,19.984497070312
0.0335,-13.888549804688,-9.8045654296875,22.667114257812
0.034,-11.366088867188,-12.206909179688,22.466918945312
0.0345,-7.5623779296875,-15.650268554688,22.026489257812
0.035,-3.6785888671875,-16.931518554688,19.223754882812
0.0355,2.0469970703125,-19.654174804688,16.621215820312
0.036,6.5714111328125,-21.776245117188,14.218872070312
0.0365,11.536254882812,-23.257690429688,10.855590820312
0.037,13.618286132812,-23.417846679688,9.0137939453125
0.0375,16.621215820312,-21.816284179688,4.5294189453125
0.038,18.262817382812,-19.574096679688,0.6856689453125
0.0385,20.785278320312,-17.131713867188,-4.2391357421875
0.039,22.947387695312,-14.328979492188,-9.2840576171875
0.0395,23.067504882812,-11.486206054688,-11.966674804688
0.04,23.067504882812,-8.4832763671875,-15.089721679688
0.0405,20.585083007812,-4.5194091796875,-16.571166992188
0.041,18.222778320312,0.5655517578125,-19.093627929688
0.0415,15.780395507812,5.2501220703125,-21.135620117188
0.042,12.537231445312,10.695434570312,-23.217651367188
0.0425,10.214965820312,12.857543945312,-22.777221679688
0.043,5.6505126953125,15.980590820312,-21.415893554688
0.0435,1.4464111328125,17.261840820312,-18.533081054688
0.044,-3.9989013671875,20.104614257812,-16.050659179688
0.0445,-8.7235107421875,22.026489257812,-13.207885742188
0.045,-12.567260742188,23.067504882812,-10.605346679688
0.0455,-15.249877929688,22.627075195312,-7.6024169921875
0.046,-16.010620117188,20.665161132812,-3.4783935546875
0.0465,-16.050659179688,18.062622070312,1.3262939453125
0.047,-15.890502929688,15.900512695312,5.6505126953125
0.0475,-15.129760742188,12.617309570312,10.735473632812
0.048,-14.048706054688,10.134887695312,12.857543945312
0.0485,-12.607299804688,6.3311767578125,15.860473632812
0.049,-11.245971679688,2.0069580078125,17.421997070312
0.0495,-9.8045654296875,-3.2381591796875,20.144653320312
0.05,-8.6434326171875,-7.8826904296875,22.066528320312
0.0505,-7.6424560546875,-12.327026367188,23.628051757812
0.051,-7.0819091796875,-13.808471679688,22.947387695312
0.0515,-7.2821044921875,-14.649291992188,22.346801757812
0.052,-8.3231201171875,-15.049682617188,20.505004882812
0.0525,-10.204956054688,-14.849487304688,19.904418945312
0.053,-13.408081054688,-14.128784179688,18.703247070312
0.0535,-16.370971679688,-12.967651367188,17.622192382812
0.054,-20.174682617188,-11.606323242188,16.781372070312
0.0545,-23.658081054688,-10.285034179688,16.340942382812
0.055,-27.341674804688,-9.0037841796875,16.140747070312
0.0555,-30.184448242188,-7.8826904296875,16.180786132812
0.056,36.160278320312,-7.0018310546875,16.340942382812
0.0565,33.037231445312,-6.5614013671875,16.461059570312
0.057,30.714965820312,-6.6014404296875,16.701293945312
0.0575,26.911254882812,-7.5623779296875,17.141723632812
0.058,24.789184570312,-9.3240966796875,17.942504882812
0.0585,22.907348632812,-12.206909179688,18.703247070312
0.059,20.945434570312,-15.450073242188,19.504028320312
0.0595,19.383911132812,-18.973510742188,20.024536132812
0.06,18.382934570312,-22.416870117188,20.424926757812
0.0605,17.902465820312,-25.660034179688,20.545043945312
0.061,17.862426757812,-28.863159179688,20.665161132812
0.0615,18.743286132812,-31.185424804688,20.505004882812
0.062,20.064575195312,38.562622070312,20.064575195312
0.0625,22.386840820312,34.478637695312,19.263793945312
0.063,24.829223632812,30.114379882812,17.301879882812
0.0635,26.831176757812,26.350708007812,14.539184570312
0.064,27.992309570312,22.026489257812,11.135864257812
0.0645,29.273559570312,18.903442382812,8.1329345703125
0.065,29.954223632812,13.698364257812,5.6104736328125
0.0655,30.594848632812,9.2940673828125,3.6885986328125
0.066,30.554809570312,3.2081298828125,1.9268798828125
0.0665,30.755004882812,-2.3973388671875,0.0050048828125
0.067,30.154418945312,-7.5223388671875,-1.5565185546875
0.0675,29.673950195312,-10.885620117188,-2.7576904296875
0.068,27.952270507812,-13.728393554688,-3.4783935546875
0.0685,24.789184570312,-16.290893554688,-3.8387451171875
0.069,20.304809570312,-18.773315429688,-4.0389404296875
0.0695,15.139770507812,-21.175659179688,-3.9188232421875
0.07,10.855590820312,-22.697143554688,-4.1190185546875
0.0705,7.1319580078125,-21.656127929688,-2.7977294921875
0.071,4.6895751953125,-20.655151367188,-1.7567138671875
0.0715,2.1270751953125,-17.652221679688,1.9268798828125
0.072,-0.5155029296875,-15.570190429688,6.3712158203125
0.0725,-2.2371826171875,-11.846557617188,11.015747070312
0.073,-4.1190185546875,-10.285034179688,13.938598632812
0.0735,15.219848632812,-5.8406982421875,15.540161132812
0.074,13.097778320312,-1.9168701171875,16.621215820312
0.0745,10.735473632812,3.5284423828125,17.221801757812
0.075,9.1339111328125,8.7335205078125,17.622192382812
0.0755,6.7716064453125,12.377075195312,17.221801757812
0.076,3.6885986328125,15.820434570312,15.660278320312
0.0765,0.4854736328125,17.341918945312,10.775512695312
0.077,-4.9197998046875,19.744262695312,-32.907104492188
0.0775,-9.4442138671875,22.026489257812,-28.062377929688
0.078,-14.288940429688,23.307739257812,-22.456909179688
0.0785,-16.531127929688,24.629028320312,-19.974487304688
0.079,-19.534057617188,22.546997070312,-13.648315429688
0.0795,-20.895385742188,20.985473632812,-9.6444091796875
0.08,-23.057495117188,17.662231445312,-3.1580810546875
0.0805,-25.740112304688,15.420043945312,2.6876220703125
0.081,-25.459838867188,11.656372070312,6.9718017578125
0.0815,-26.100463867188,9.2540283203125,10.535278320312
0.082,-23.578002929688,5.1700439453125,12.737426757812
0.0825,-21.055541992188,0.1651611328125,15.660278320312
0.083,-18.092651367188,-5.0399169921875,18.142700195312
0.0835,-14.769409179688,-10.485229492188,20.665161132812
0.084,-12.927612304688,-13.127807617188,21.666137695312
0.0845,-7.7225341796875,-16.811401367188,20.384887695312
0.085,-4.2791748046875,-17.972534179688,18.463012695312
0.0855,2.0469970703125,-20.655151367188,15.259887695312
0.086,7.1319580078125,-23.377807617188,13.137817382812
0.0865,12.016723632812,-23.818237304688,9.1739501953125
0.087,14.018676757812,-24.819213867188,8.0128173828125
0.0875,15.219848632812,-22.456909179688,3.2882080078125
0.088,15.179809570312,-20.414916992188,-0.7957763671875
0.0885,15.219848632812,-17.371948242188,-5.8406982421875
0.089,15.099731445312,-14.649291992188,-10.925659179688
0.0895,15.059692382812,-11.846557617188,-13.608276367188
0.09,14.739379882812,-8.0028076171875,-17.051635742188
0.0905,14.379028320312,-4.5994873046875,-17.892456054688
0.091,14.058715820312,1.1661376953125,-18.573120117188
0.0915,13.658325195312,6.3712158203125,-19.373901367188
0.092,13.658325195312,11.776489257812,-20.094604492188
0.0925,13.217895507812,13.898559570312,-20.454956054688
0.093,13.698364257812,17.021606445312,-20.695190429688
0.0935,14.338989257812,18.382934570312,-20.655151367188
0.094,15.820434570312,20.985473632812,-20.494995117188
0.0945,18.102661132812,23.668090820312,-20.214721679688
0.095,20.344848632812,23.748168945312,-19.894409179688
0.0955,23.387817382812,23.868286132812,-19.614135742188
0.096,25.910278320312,21.505981445312,-19.534057617188
0.0965,29.874145507812,18.903442382812,-19.894409179688
0.097,34.198364257812,16.140747070312,-20.454956054688
0.0975,38.562622070312,12.497192382812,-21.736206054688
0.098,41.205200195312,10.535278320312,-22.496948242188
0.0985,41.765747070312,5.8106689453125,-24.498901367188
0.099,40.084106445312,2.3673095703125,-26.020385742188
0.0995,-48.922729492188,-3.5584716796875,-28.262573242188
0.1,-37.271362304688,-8.9637451171875,-30.144409179688
0.1005,-31.145385742188,-13.127807617188,-31.145385742188
0.101,-26.580932617188,-15.810424804688,-32.106323242188
0.1015,-19.333862304688,-18.012573242188,-32.106323242188
0.102,-12.767456054688,-19.894409179688,-32.026245117188
0.1025,-6.1610107421875,-22.216674804688,-31.786010742188
0.103,1.1260986328125,-24.538940429688,-31.105346679688
0.1035,4.7296142578125,-24.538940429688,-30.704956054688
0.104,9.1339111328125,-23.858276367188,-29.183471679688
0.1045,11.376098632812,-21.335815429688,-27.261596679688
0.105,14.579223632812,-18.853393554688,-23.537963867188
0.1055,17.502075195312,-15.890502929688,-19.013549804688
0.106,19.343872070312,-12.286987304688,-13.688354492188
0.1065,19.864379882812,-10.004760742188,-10.405151367188
0.107,18.422973632812,-5.4403076171875,-7.9627685546875
0.1075,16.140747070312,-1.2762451171875,-6.5614013671875
0.108,14.098754882812,4.0889892578125,-5.2000732421875
0.1085,11.215942382812,9.8145751953125,-4.1590576171875
0.109,8.6134033203125,12.977661132812,-3.7186279296875
0.1095,5.2901611328125,16.060668945312,-3.5184326171875
0.11,0.8458251953125,17.702270507812,-3.9588623046875
0.1105,-4.4393310546875,20.144653320312,-4.6795654296875
0.111,-8.8436279296875,22.146606445312,-5.8006591796875
0.1115,-14.088745117188,24.068481445312,-7.7225341796875
0.112,-16.170776367188,23.668090820312,-10.725463867188
0.1125,-19.053588867188,22.466918945312,-17.692260742188
0.113,-20.494995117188,19.544067382812,5.3302001953125
0.1135,-23.057495117188,17.221801757812,9.6143798828125
0.114,-24.619018554688,14.058715820312,13.818481445312
0.1145,-25.379760742188,11.215942382812,16.981567382812
0.115,-24.859252929688,7.8927001953125,19.383911132812
0.1155,-22.376831054688,3.5684814453125,20.985473632812
0.116,-19.494018554688,-1.5164794921875,22.587036132812
0.1165,-17.131713867188,-6.4012451171875,24.789184570312
0.117,-13.608276367188,-11.846557617188,26.390747070312
0.1175,-10.885620117188,-14.409057617188,25.910278320312
0.118,-6.7215576171875,-17.291870117188,24.348754882812
0.1185,-1.8768310546875,-18.733276367188,20.825317382812
0.119,3.6485595703125,-21.495971679688,17.982543945312
0.1195,8.4932861328125,-23.097534179688,14.739379882812
0.12,12.777465820312,-24.739135742188,12.176879882812
0.1205,15.660278320312,-23.778198242188,8.2930908203125
0.121,17.862426757812,-22.176635742188,4.6094970703125
0.1215,19.984497070312,-19.093627929688,-0.7957763671875
0.122,22.546997070312,-17.171752929688,-5.3201904296875
0.1225,23.668090820312,-13.287963867188,-10.365112304688
0.123,24.188598632812,-10.885620117188,-13.287963867188
0.1235,23.187622070312,-7.3221435546875,-15.810424804688
0.124,21.906372070312,-2.7176513671875,-16.370971679688
0.1245,20.144653320312,2.4073486328125,-16.891479492188
0.125,18.422973632812,7.4522705078125,-17.452026367188
0.1255,16.941528320312,11.856567382812,-17.812377929688
0.126,15.940551757812,14.899536132812,-18.092651367188
0.1265,15.179809570312,17.101684570312,-18.212768554688
0.127,15.219848632812,18.863403320312,-18.252807617188
0.1275,15.700317382812,21.626098632812,-18.052612304688
0.128,17.542114257812,22.747192382812,-18.052612304688
0.1285,19.824340820312,24.028442382812,-17.852416992188
0.129,22.907348632812,22.627075195312,-17.972534179688
0.1295,24.949340820312,20.705200195312,-18.212768554688
0.13,26.390747070312,17.582153320312,-18.933471679688
0.1305,27.792114257812,15.380004882812,-19.854370117188
0.131,28.873168945312,12.096801757812,-21.015502929688
0.1315,29.794067382812,9.0137939453125,-22.456909179688
0.132,30.474731445312,5.6104736328125,-23.898315429688
0.1325,30.594848632812,0.4454345703125,-25.780151367188
0.133,30.714965820312,-4.5594482421875,-27.942260742188
0.1335,30.034301757812,-9.6444091796875,-29.383666992188
0.134,29.553833007812,-13.007690429688,-30.785034179688
0.1345,27.591918945312,-16.170776367188,-31.265502929688
0.135,24.989379882812,-18.012573242188,-31.545776367188
0.1355,20.184692382812,-19.894409179688,-31.265502929688
0.136,-20.254760742188,-22.857299804688,-31.265502929688
0.1365,-11.005737304688,-23.618041992188,-30.624877929688
0.137,-5.5203857421875,-24.178588867188,-29.944213867188
0.1375,-0.9559326171875,-22.737182617188,-28.703002929688
0.138,3.7686767578125,-19.413940429688,-25.940307617188
0.1385,7.3721923828125,-17.452026367188,-22.096557617188
0.139,10.655395507812,-14.409057617188,-17.211791992188
0.1395,13.177856445312,-12.407104492188,-13.127807617188
0.14,13.498168945312,-8.1229248046875,-9.1239013671875
0.1405,13.057739257812,-5.1199951171875,-8.0828857421875
0.141,10.695434570312,0.4454345703125,-9.0838623046875
0.1415,9.2940673828125,5.4102783203125,-12.407104492188
0.142,6.3712158203125,10.255004882812,-6.6014404296875
0.1425,5.4102783203125,13.217895507812,-9.6444091796875
0.143,1.3262939453125,15.740356445312,-9.2440185546875
0.1435,-2.6776123046875,17.742309570312,-8.2430419921875
0.144,-7.4422607421875,19.744262695312,-6.3612060546875
0.1445,-12.086791992188,22.306762695312,-4.9598388671875
0.145,-15.089721679688,23.067504882812,-3.5584716796875
0.1455,-18.172729492188,22.587036132812,-0.5955810546875
0.146,-18.412963867188,21.265747070312,1.3663330078125
0.1465,-18.212768554688,18.342895507812,6.0909423828125
0.147,-17.892456054688,16.020629882812,10.174926757812
0.1475,-17.131713867188,12.377075195312,14.379028320312
0.148,-15.690307617188,11.055786132812,16.340942382812
0.1485,-14.128784179688,6.3311767578125,18.863403320312
0.149,-12.487182617188,2.8477783203125,20.184692382812
0.1495,-10.965698242188,-2.4373779296875,22.066528320312
0.15,-9.6043701171875,-7.6824951171875,24.789184570312
0.1505,-8.4832763671875,-11.366088867188,24.829223632812
0.151,-7.8426513671875,-14.729370117188,25.029418945312
0.1515,-7.6824951171875,-16.370971679688,22.587036132812
0.152,-8.6033935546875,-18.733276367188,19.463989257812
0.1525,-10.244995117188,-20.975463867188,16.661254882812
0.153,-13.247924804688,-22.817260742188,13.097778320312
0.1535,-15.850463867188,-23.858276367188,11.696411132812
0.154,-19.734252929688,-22.496948242188,6.7315673828125
0.1545,-22.937377929688,-21.015502929688,3.8487548828125
0.155,-26.620971679688,-18.092651367188,-0.9959716796875
0.1555,30.554809570312,-15.730346679688,-6.5213623046875
0.156,29.273559570312,-12.046752929688,-10.445190429688
0.1565,29.433715820312,-10.204956054688,-13.247924804688
0.157,26.550903320312,-6.2410888671875,-15.129760742188
0.1575,23.708129882812,-1.8367919921875,-17.331909179688
0.158,20.585083007812,3.0880126953125,-19.413940429688
0.1585,17.181762695312,8.6534423828125,-22.056518554688
0.159,14.539184570312,11.215942382812,-22.536987304688
0.1595,9.8946533203125,14.979614257812,-21.656127929688
0.16,6.3712158203125,15.980590820312,-19.494018554688
0.1605,0.4454345703125,18.543090820312,-16.531127929688
0.161,-4.5194091796875,20.905395507812,-14.288940429688
0.1615,-9.6444091796875,22.066528320312,-10.645385742188
0.162,-12.046752929688,22.907348632812,-9.5643310546875
0.1625,-14.929565429688,21.065551757812,-4.9998779296875
0.163,-16.851440429688,19.103637695312,-1.2762451171875
0.1635,-17.972534179688,16.541137695312,1.6065673828125
0.164,-18.172729492188,13.818481445312,3.3282470703125
0.1645,-18.212768554688,11.215942382812,5.0098876953125
0.165,-17.612182617188,7.9327392578125,5.9307861328125
0.1655,-16.691284179688,4.5694580078125,6.8917236328125
0.166,-15.570190429688,-0.6356201171875,7.4122314453125
0.1665,-14.409057617188,-5.3201904296875,7.8927001953125
0.167,-13.408081054688,-10.565307617188,8.2930908203125
0.1675,-12.246948242188,-12.767456054688,8.6534423828125
0.168,-11.926635742188,-15.890502929688,9.4542236328125
0.1685,-11.966674804688,-17.251831054688,9.7745361328125
0.169,-12.967651367188,-19.814331054688,10.335083007812
0.1695,-14.969604492188,-22.216674804688,10.975708007812
0.17,-17.371948242188,-22.897338867188,11.536254882812
0.1705,-20.494995117188,-23.097534179688,12.176879882812
0.171,-23.217651367188,-21.175659179688,13.658325195312
0.1715,-26.661010742188,-18.853393554688,14.178833007812
0.172,-29.824096679688,-16.531127929688,15.420043945312
0.1725,-32.506713867188,-13.207885742188,17.141723632812
0.173,-34.268432617188,-11.286010742188,18.142700195312
0.1735,-35.349487304688,-7.2821044921875,20.304809570312
0.174,-35.910034179688,-4.1190185546875,22.146606445312
0.1745,-36.070190429688,0.8057861328125,25.910278320312
0.175,-35.950073242188,6.2110595703125,28.953247070312
0.1755,-35.229370117188,10.455200195312,30.234497070312
0.176,-34.468627929688,13.177856445312,30.875122070312
0.1765,30.234497070312,15.540161132812,30.234497070312
0.177,22.787231445312,17.301879882812,29.473754882812
0.1775,15.700317382812,19.584106445312,28.793090820312
0.178,7.9727783203125,21.746215820312,27.471801757812
