wavelength,x,y,z
0.0,-2.9078369140625,-0.7857666015625,3.2181396484375
0.0005,-3.0279541015625,-0.4654541015625,2.9378662109375
0.001,-3.0279541015625,0.2152099609375,2.2972412109375
0.0015,-3.1080322265625,0.9759521484375,1.6165771484375
0.002,-3.1881103515625,1.7366943359375,1.0560302734375
0.0025,-3.3482666015625,2.2572021484375,0.6556396484375
0.003,-3.1881103515625,2.5374755859375,0.2552490234375
0.0035,-2.7877197265625,2.6575927734375,-0.3052978515625
0.004,-2.1871337890625,2.8177490234375,-1.0260009765625
0.0045,-1.4664306640625,2.9378662109375,-1.8668212890625
0.005,-0.9859619140625,3.0579833984375,-2.4674072265625
0.0055,-0.6256103515625,3.1781005859375,-2.9478759765625
0.006,-0.2652587890625,3.0179443359375,-3.1881103515625
0.0065,0.3753662109375,2.5374755859375,-3.2681884765625
0.007,1.1361083984375,1.9368896484375,-3.4683837890625
0.0075,1.8968505859375,1.3363037109375,-3.5885009765625
0.008,2.3773193359375,0.9759521484375,-3.7086181640625
0.0085,2.6175537109375,0.5755615234375,-3.6685791015625
0.009,2.7376708984375,0.1351318359375,-3.3482666015625
0.0095,2.8177490234375,-0.5054931640625,-2.8277587890625
0.01,2.8577880859375,-1.1861572265625,-2.1470947265625
0.0105,3.0579833984375,-1.8267822265625,-1.6666259765625
0.011,3.1380615234375,-2.3873291015625,-1.2662353515625
0.0115,3.0579833984375,-2.6676025390625,-0.8258056640625
0.012,2.5775146484375,-2.8277587890625,-0.2652587890625
0.0125,2.0570068359375,-3.0279541015625,0.4954833984375
0.013,1.3363037109375,-3.1480712890625,1.2962646484375
0.0135,0.9759521484375,-3.3482666015625,1.9368896484375
0.014,0.5355224609375,-3.4283447265625,2.4173583984375
0.0145,0.0550537109375,-3.2281494140625,2.6575927734375
0.015,-0.6256103515625,-2.7076416015625,2.8177490234375
0.0155,-1.4263916015625,-2.0670166015625,3.0579833984375
0.016,-2.1470947265625,-1.5064697265625,3.1781005859375
0.0165,-2.7076416015625,-1.1861572265625,3.3382568359375
0.017,-2.8677978515625,-0.7857666015625,3.1380615234375
0.0175,-3.0279541015625,-0.3052978515625,2.6976318359375
0.018,-3.1480712890625,0.4954833984375,2.1370849609375
0.0185,-3.1881103515625,1.3363037109375,1.4163818359375
0.019,-3.3082275390625,1.9368896484375,0.9759521484375
0.0195,-3.3482666015625,2.4173583984375,0.5355224609375
0.02,-3.0679931640625,2.6175537109375,0.0550537109375
0.0205,-2.4674072265625,2.6976318359375,-0.6256103515625
0.021,-1.8267822265625,2.8978271484375,-1.4664306640625
0.0215,-1.2261962890625,3.0579833984375,-2.2672119140625
0.022,-0.8258056640625,3.2181396484375,-2.7476806640625
0.0225,-0.3853759765625,3.0980224609375,-3.0679931640625
0.023,0.1351318359375,2.7777099609375,-3.2281494140625
0.0235,0.8958740234375,2.1370849609375,-3.3883056640625
0.024,1.6165771484375,1.5364990234375,-3.5484619140625
0.0245,2.2171630859375,1.0560302734375,-3.6285400390625
0.025,2.5775146484375,0.6956787109375,-3.7486572265625
0.0255,2.6575927734375,0.2952880859375,-3.4683837890625
0.026,2.6976318359375,-0.2652587890625,-2.8677978515625
0.0265,2.8577880859375,-0.9459228515625,-2.3472900390625
0.027,2.9378662109375,-1.6666259765625,-1.7467041015625
0.0275,3.0579833984375,-2.1871337890625,-1.3463134765625
0.028,3.0179443359375,-2.5474853515625,-0.9859619140625
0.0285,2.6976318359375,-2.7076416015625,-0.5054931640625
0.029,2.1370849609375,-2.8677978515625,0.2552490234375
0.0295,1.5364990234375,-3.0279541015625,1.0159912109375
0.03,1.0560302734375,-3.1881103515625,1.6566162109375
0.0305,0.6956787109375,-3.3883056640625,2.2171630859375
0.031,0.2952880859375,-3.1881103515625,2.4974365234375
0.0315,-0.3052978515625,-2.8677978515625,2.6976318359375
0.032,-1.0660400390625,-2.3472900390625,2.8978271484375
0.0325,-1.8668212890625,-1.7867431640625,3.0579833984375
0.033,-2.3873291015625,-1.3863525390625,3.1781005859375
0.0335,-2.7476806640625,-0.9859619140625,3.1781005859375
0.034,-2.9078369140625,-0.5455322265625,2.9378662109375
0.0345,-2.9478759765625,0.1351318359375,2.3372802734375
0.035,-3.1080322265625,0.8958740234375,1.7767333984375
0.0355,-3.2681884765625,1.6566162109375,1.2161865234375
0.036,-3.3883056640625,2.2171630859375,0.7757568359375
0.0365,-3.1881103515625,2.4974365234375,0.3353271484375
0.037,-2.8277587890625,2.6976318359375,-0.3052978515625
0.0375,-2.1470947265625,2.8577880859375,-1.1461181640625
0.038,-1.5064697265625,3.0579833984375,-1.9468994140625
0.0385,-1.0260009765625,3.2181396484375,-2.5474853515625
0.039,-0.6256103515625,3.3382568359375,-3.0679931640625
0.0395,-0.1451416015625,3.0179443359375,-3.2681884765625
0.04,0.6556396484375,2.3773193359375,-3.4283447265625
0.0405,1.4564208984375,1.7767333984375,-3.6285400390625
0.041,2.2171630859375,1.1361083984375,-3.7886962890625
0.0415,2.6175537109375,0.7757568359375,-3.8687744140625
0.042,2.8177490234375,0.3753662109375,-3.5885009765625
0.0425,2.8978271484375,-0.1451416015625,-3.1881103515625
0.043,2.9378662109375,-0.9459228515625,-2.4273681640625
0.0435,3.0179443359375,-1.6666259765625,-1.8267822265625
0.044,3.1380615234375,-2.3072509765625,-1.3062744140625
0.0445,3.1781005859375,-2.7076416015625,-0.9459228515625
0.045,2.7777099609375,-2.8277587890625,-0.4654541015625
0.0455,2.2171630859375,-2.9078369140625,0.2552490234375
0.046,1.5364990234375,-3.0679931640625,1.1361083984375
0.0465,0.9359130859375,-3.2281494140625,1.8568115234375
0.047,0.5755615234375,-3.3482666015625,2.2972412109375
0.0475,0.1351318359375,-3.2681884765625,2.6575927734375
0.048,-0.3853759765625,-2.9078369140625,2.8177490234375
0.0485,-1.1861572265625,-2.2672119140625,2.8978271484375
0.049,-1.9468994140625,-1.7066650390625,3.0579833984375
0.0495,-2.5074462890625,-1.2261962890625,3.1380615234375
0.05,-2.8677978515625,-0.8658447265625,3.2581787109375
0.0505,-2.9478759765625,-0.4254150390625,2.8978271484375
0.051,-3.0279541015625,0.1751708984375,2.4173583984375
0.0515,-3.1480712890625,0.8958740234375,1.7767333984375
0.052,-3.1881103515625,1.6165771484375,1.1361083984375
0.0525,-3.3482666015625,2.1771240234375,0.7357177734375
0.053,-3.3082275390625,2.6175537109375,0.2952880859375
0.0535,-2.9078369140625,2.6976318359375,-0.1851806640625
0.054,-2.2672119140625,2.8577880859375,-0.9859619140625
0.0545,-1.6265869140625,3.0179443359375,-1.7867431640625
0.055,-1.0660400390625,3.1781005859375,-2.5074462890625
0.0555,-0.7056884765625,3.3382568359375,-3.0279541015625
0.056,-0.2252197265625,3.0980224609375,-3.2681884765625
0.0565,0.4154052734375,2.6575927734375,-3.5084228515625
0.057,1.2962646484375,1.9368896484375,-3.6685791015625
0.0575,1.9769287109375,1.3363037109375,-3.7886962890625
0.058,2.5374755859375,0.9359130859375,-3.8287353515625
0.0585,2.8577880859375,0.6156005859375,-3.8287353515625
0.059,2.9378662109375,0.0550537109375,-3.3883056640625
0.0595,2.9378662109375,-0.6656494140625,-2.7076416015625
0.06,3.0579833984375,-1.4263916015625,-2.0670166015625
0.0605,3.1781005859375,-2.1871337890625,-1.4263916015625
0.061,3.2181396484375,-2.6275634765625,-1.0660400390625
0.0615,3.0579833984375,-2.9078369140625,-0.6256103515625
0.062,2.5374755859375,-3.0279541015625,0.0150146484375
0.0625,1.7366943359375,-3.1480712890625,0.9359130859375
0.063,1.0960693359375,-3.2281494140625,1.6566162109375
0.0635,0.6156005859375,-3.3883056640625,2.2972412109375
0.064,0.2952880859375,-3.4683837890625,2.6976318359375
0.0645,-0.3052978515625,-3.0679931640625,2.8177490234375
0.065,-1.0660400390625,-2.5074462890625,2.9779052734375
0.0655,-1.9068603515625,-1.7867431640625,3.0579833984375
0.066,-2.4674072265625,-1.2261962890625,3.1781005859375
0.0665,-2.8677978515625,-0.8658447265625,3.1781005859375
0.067,-3.0679931640625,-0.5054931640625,3.0579833984375
0.0675,-3.0679931640625,0.0150146484375,2.5775146484375
0.068,-3.0679931640625,0.7757568359375,1.8568115234375
0.0685,-3.1881103515625,1.4564208984375,1.2962646484375
0.069,-3.2281494140625,2.0970458984375,0.7357177734375
0.0695,-3.2681884765625,2.4974365234375,0.4154052734375
0.07,-2.9078369140625,2.6575927734375,-0.1451416015625
0.0705,-2.4273681640625,2.7376708984375,-0.7457275390625
0.071,-1.7066650390625,2.8577880859375,-1.5865478515625
0.0715,-1.1461181640625,3.0579833984375,-2.2672119140625
0.072,-0.7457275390625,3.1781005859375,-2.7877197265625
0.0725,-0.3853759765625,3.1380615234375,-3.1881103515625
0.073,0.1351318359375,2.7777099609375,-3.3082275390625
0.0735,0.8958740234375,2.1771240234375,-3.5084228515625
0.074,1.6566162109375,1.5765380859375,-3.5885009765625
0.0745,2.2572021484375,1.1361083984375,-3.7486572265625
0.075,2.6175537109375,0.7757568359375,-3.8287353515625
0.0755,2.8577880859375,0.3353271484375,-3.5484619140625
0.076,2.8978271484375,-0.2252197265625,-3.1480712890625
0.0765,2.9378662109375,-0.9859619140625,-2.3873291015625
0.077,3.0980224609375,-1.7467041015625,-1.8267822265625
0.0775,3.1781005859375,-2.3873291015625,-1.3062744140625
0.078,3.2181396484375,-2.7877197265625,-0.9459228515625
0.0785,2.7777099609375,-2.8677978515625,-0.3853759765625
0.079,2.2171630859375,-3.0679931640625,0.3753662109375
0.0795,1.4564208984375,-3.1881103515625,1.2562255859375
0.08,0.9759521484375,-3.3482666015625,1.9368896484375
0.0805,0.5355224609375,-3.5484619140625,2.4173583984375
0.081,0.1351318359375,-3.3482666015625,2.7376708984375
0.0815,-0.5855712890625,-2.9078369140625,2.8577880859375
0.082,-1.4263916015625,-2.1470947265625,3.0579833984375
0.0825,-2.1470947265625,-1.5465087890625,3.1781005859375
0.083,-2.7076416015625,-1.1060791015625,3.3382568359375
0.0835,-2.9879150390625,-0.7457275390625,3.2181396484375
0.084,-3.0279541015625,-0.2652587890625,2.8177490234375
0.0845,-3.1080322265625,0.4554443359375,2.2171630859375
0.085,-3.1881103515625,1.2962646484375,1.4564208984375
0.0855,-3.2681884765625,1.9368896484375,0.9759521484375
0.086,-3.3482666015625,2.4173583984375,0.4954833984375
0.0865,-3.1881103515625,2.6976318359375,0.1351318359375
0.087,-2.6275634765625,2.7376708984375,-0.5054931640625
0.0875,-1.9468994140625,2.8577880859375,-1.3463134765625
0.088,-1.2662353515625,3.0179443359375,-2.1470947265625
0.0885,-0.8658447265625,3.1781005859375,-2.7476806640625
0.089,-0.5054931640625,3.1380615234375,-3.1080322265625
0.0895,0.0150146484375,2.8577880859375,-3.2681884765625
0.09,0.6956787109375,2.3773193359375,-3.4683837890625
0.0905,1.5364990234375,1.6165771484375,-3.5484619140625
0.091,2.1370849609375,1.1761474609375,-3.6685791015625
0.0915,2.5775146484375,0.7757568359375,-3.7486572265625
0.092,2.8177490234375,0.4554443359375,-3.6285400390625
0.0925,2.8177490234375,-0.0650634765625,-3.1881103515625
0.093,2.8577880859375,-0.7857666015625,-2.5474853515625
0.0935,2.9779052734375,-1.5465087890625,-1.9068603515625
0.094,3.0980224609375,-2.1470947265625,-1.4263916015625
0.0945,3.1380615234375,-2.5474853515625,-1.0260009765625
0.095,2.8577880859375,-2.8277587890625,-0.5855712890625
0.0955,2.3773193359375,-2.9078369140625,0.0550537109375
0.096,1.6966552734375,-3.0679931640625,0.8958740234375
0.0965,1.1361083984375,-3.2281494140625,1.5765380859375
0.097,0.6956787109375,-3.4283447265625,2.2171630859375
0.0975,0.3353271484375,-3.3883056640625,2.5374755859375
0.098,-0.2252197265625,-3.0679931640625,2.6976318359375
0.0985,-0.9459228515625,-2.5074462890625,2.9378662109375
0.099,-1.7867431640625,-1.8267822265625,3.0980224609375
0.0995,-2.3472900390625,-1.3463134765625,3.2181396484375
0.1,-2.7877197265625,-0.9859619140625,3.2581787109375
0.1005,-2.9478759765625,-0.6256103515625,3.0579833984375
0.101,-3.0279541015625,0.0150146484375,2.5374755859375
0.1015,-3.1080322265625,0.7757568359375,1.8968505859375
0.102,-3.2281494140625,1.5364990234375,1.2962646484375
0.1025,-3.3482666015625,2.1771240234375,0.8157958984375
0.103,-3.2681884765625,2.4974365234375,0.4154052734375
0.1035,-2.9078369140625,2.6575927734375,-0.1451416015625
0.104,-2.3472900390625,2.8177490234375,-0.9058837890625
0.1045,-1.6265869140625,2.9378662109375,-1.7867431640625
0.105,-1.1461181640625,3.0980224609375,-2.4273681640625
0.1055,-0.7056884765625,3.2581787109375,-2.9078369140625
0.106,-0.3052978515625,3.1380615234375,-3.1881103515625
0.1065,0.3753662109375,2.5775146484375,-3.3482666015625
0.107,1.1361083984375,1.9769287109375,-3.5484619140625
0.1075,1.9368896484375,1.3363037109375,-3.6685791015625
0.108,2.4573974609375,0.9759521484375,-3.8287353515625
0.1085,2.6976318359375,0.6156005859375,-3.7086181640625
0.109,2.8177490234375,0.1751708984375,-3.3482666015625
0.1095,2.8577880859375,-0.5054931640625,-2.7476806640625
0.11,2.8978271484375,-1.3062744140625,-2.0670166015625
0.1105,3.0579833984375,-1.9468994140625,-1.5465087890625
0.111,3.1781005859375,-2.5074462890625,-1.1461181640625
0.1115,3.0179443359375,-2.7476806640625,-0.7457275390625
0.112,2.5374755859375,-2.8277587890625,-0.1851806640625
0.1125,1.9368896484375,-3.0679931640625,0.6156005859375
0.113,1.2562255859375,-3.1881103515625,1.4163818359375
0.1135,0.8157958984375,-3.3082275390625,1.9769287109375
0.114,0.4554443359375,-3.3482666015625,2.4173583984375
0.1145,0.0150146484375,-3.1480712890625,2.6575927734375
0.115,-0.7056884765625,-2.5875244140625,2.8177490234375
0.1155,-1.4664306640625,-1.9468994140625,2.9378662109375
0.116,-2.1470947265625,-1.4664306640625,3.0579833984375
0.1165,-2.6275634765625,-1.1060791015625,3.2181396484375
0.117,-2.8277587890625,-0.7857666015625,3.0579833984375
0.1175,-2.9078369140625,-0.2652587890625,2.6976318359375
0.118,-3.0279541015625,0.4154052734375,2.1771240234375
0.1185,-3.1480712890625,1.2161865234375,1.4564208984375
0.119,-3.2281494140625,1.8167724609375,1.0159912109375
0.1195,-3.2681884765625,2.2972412109375,0.6156005859375
0.12,-3.1080322265625,2.5374755859375,0.1351318359375
0.1205,-2.5474853515625,2.6175537109375,-0.5455322265625
0.121,-1.9468994140625,2.8577880859375,-1.3062744140625
0.1215,-1.3463134765625,3.0579833984375,-2.1070556640625
0.122,-0.9859619140625,3.2581787109375,-2.7076416015625
0.1225,-0.5455322265625,3.1781005859375,-3.0679931640625
0.123,0.0150146484375,2.9378662109375,-3.2681884765625
0.1235,0.7757568359375,2.2972412109375,-3.5084228515625
0.124,1.5765380859375,1.6566162109375,-3.6685791015625
0.1245,2.2171630859375,1.2161865234375,-3.7886962890625
0.125,2.6575927734375,0.8157958984375,-3.8687744140625
0.1255,2.8177490234375,0.4154052734375,-3.5885009765625
0.126,2.8577880859375,-0.2252197265625,-3.0679931640625
0.1265,2.9779052734375,-0.9859619140625,-2.4273681640625
0.127,3.0980224609375,-1.8668212890625,-1.7066650390625
0.1275,3.1781005859375,-2.3873291015625,-1.3062744140625
0.128,3.1380615234375,-2.7476806640625,-0.8658447265625
0.1285,2.7777099609375,-2.9078369140625,-0.3853759765625
0.129,2.0570068359375,-3.0679931640625,0.4554443359375
0.1295,1.4163818359375,-3.1881103515625,1.2962646484375
0.13,0.8157958984375,-3.3082275390625,1.9769287109375
0.1305,0.4954833984375,-3.4683837890625,2.4974365234375
0.131,0.0150146484375,-3.1881103515625,2.6976318359375
0.1315,-0.6256103515625,-2.7476806640625,2.8577880859375
0.132,-1.4263916015625,-2.1070556640625,3.0579833984375
0.1325,-2.2271728515625,-1.4263916015625,3.1781005859375
0.133,-2.6275634765625,-1.0660400390625,3.2181396484375
0.1335,-2.9478759765625,-0.6656494140625,3.1380615234375
0.134,-3.0279541015625,-0.2652587890625,2.8177490234375
0.1345,-2.9879150390625,0.4554443359375,2.0970458984375
0.135,-3.1080322265625,1.1761474609375,1.5364990234375
0.1355,-3.1881103515625,1.8968505859375,0.9359130859375
0.136,-3.3482666015625,2.3773193359375,0.5755615234375
0.1365,-3.1080322265625,2.5374755859375,0.1351318359375
0.137,-2.7076416015625,2.6575927734375,-0.4654541015625
0.1375,-1.9869384765625,2.8577880859375,-1.2261962890625
0.138,-1.3463134765625,3.0179443359375,-2.0269775390625
0.1385,-0.9058837890625,3.1781005859375,-2.6275634765625
0.139,-0.5855712890625,3.2581787109375,-3.0679931640625
0.1395,-0.0650634765625,2.9378662109375,-3.2681884765625
0.14,0.6556396484375,2.4173583984375,-3.3883056640625
0.1405,1.4163818359375,1.8167724609375,-3.5885009765625
0.141,2.1771240234375,1.2161865234375,-3.7486572265625
0.1415,2.5775146484375,0.8958740234375,-3.8287353515625
0.142,2.8177490234375,0.4554443359375,-3.6685791015625
0.1425,2.9378662109375,0.0150146484375,-3.3082275390625
0.143,2.9779052734375,-0.7857666015625,-2.5875244140625
0.1435,3.0579833984375,-1.5865478515625,-1.9468994140625
0.144,3.1781005859375,-2.2672119140625,-1.4263916015625
0.1445,3.2581787109375,-2.7877197265625,-1.0260009765625
0.145,2.9378662109375,-2.9478759765625,-0.5455322265625
0.1455,2.3372802734375,-3.0279541015625,0.2152099609375
0.146,1.6566162109375,-3.1881103515625,1.0560302734375
0.1465,0.9759521484375,-3.3482666015625,1.8568115234375
0.147,0.6156005859375,-3.5084228515625,2.4173583984375
0.1475,0.1751708984375,-3.4283447265625,2.7777099609375
0.148,-0.4254150390625,-3.0679931640625,2.9779052734375
0.1485,-1.2662353515625,-2.2672119140625,3.0579833984375
0.149,-2.0670166015625,-1.6265869140625,3.1781005859375
0.1495,-2.6676025390625,-1.1461181640625,3.2581787109375
0.15,-3.0279541015625,-0.7857666015625,3.3382568359375
0.1505,-3.0679931640625,-0.3453369140625,2.8978271484375
0.151,-3.0679931640625,0.2552490234375,2.4173583984375
0.1515,-3.1480712890625,1.0560302734375,1.6566162109375
0.152,-3.1881103515625,1.7366943359375,0.9759521484375
0.1525,-3.2681884765625,2.2572021484375,0.6156005859375
0.153,-3.1881103515625,2.6175537109375,0.1751708984375
0.1535,-2.8277587890625,2.7376708984375,-0.3052978515625
0.154,-2.1070556640625,2.7777099609375,-1.1461181640625
0.1545,-1.4664306640625,2.9378662109375,-1.8668212890625
0.155,-0.9459228515625,3.1380615234375,-2.5474853515625
0.1555,-0.6256103515625,3.2181396484375,-2.9879150390625
0.156,-0.1451416015625,3.0179443359375,-3.1881103515625
0.1565,0.4154052734375,2.6175537109375,-3.3883056640625
0.157,1.2562255859375,1.9368896484375,-3.5484619140625
0.1575,1.9368896484375,1.3363037109375,-3.5885009765625
0.158,2.4173583984375,0.9359130859375,-3.7086181640625
0.1585,2.7777099609375,0.6156005859375,-3.7486572265625
0.159,2.8177490234375,0.1751708984375,-3.3482666015625
0.1595,2.8577880859375,-0.5054931640625,-2.7476806640625
0.16,2.9378662109375,-1.3062744140625,-2.3072509765625
0.1605,3.0980224609375,-1.9869384765625,-1.5865478515625
0.161,3.1781005859375,-2.4674072265625,-1.2662353515625
0.1615,3.0179443359375,-2.7476806640625,-0.7457275390625
0.162,2.6575927734375,-2.9078369140625,-0.2652587890625
0.1625,1.9368896484375,-3.0279541015625,0.6156005859375
0.163,1.2962646484375,-3.1881103515625,1.3763427734375
0.1635,0.8558349609375,-3.3482666015625,2.0570068359375
0.164,0.4954833984375,-3.5084228515625,2.5374755859375
0.1645,0.0150146484375,-3.1881103515625,2.6976318359375
0.165,-0.7056884765625,-2.7076416015625,2.8978271484375
0.1655,-1.5865478515625,-2.0269775390625,3.0579833984375
0.166,-2.2672119140625,-1.4664306640625,3.2181396484375
0.1665,-2.7076416015625,-1.1060791015625,3.2982177734375
0.167,-2.9879150390625,-0.6656494140625,3.1781005859375
0.1675,-3.0679931640625,-0.1851806640625,2.7777099609375
0.168,-3.1881103515625,0.4554443359375,1.9769287109375
0.1685,-3.1881103515625,1.3363037109375,1.4163818359375
0.169,-3.3482666015625,2.0169677734375,0.8558349609375
0.1695,-3.3883056640625,2.4974365234375,0.4954833984375
0.17,-3.0279541015625,2.6575927734375,0.0150146484375
0.1705,-2.5074462890625,2.8177490234375,-0.6656494140625
0.171,-1.7467041015625,2.8978271484375,-1.5865478515625
0.1715,-1.1861572265625,3.0579833984375,-2.2672119140625
0.172,-0.7857666015625,3.1781005859375,-2.8277587890625
0.1725,-0.3853759765625,3.1781005859375,-3.1881103515625
0.173,0.2152099609375,2.7376708984375,-3.3082275390625
0.1735,0.9759521484375,2.0970458984375,-3.4683837890625
0.174,1.7366943359375,1.4964599609375,-3.5885009765625
0.1745,2.2972412109375,1.0159912109375,-3.7086181640625
0.175,2.6175537109375,0.6956787109375,-3.7086181640625
0.1755,2.7777099609375,0.2952880859375,-3.4683837890625
0.176,2.7376708984375,-0.3052978515625,-2.9478759765625
0.1765,2.8577880859375,-1.1060791015625,-2.2672119140625
0.177,3.0179443359375,-1.7467041015625,-1.6666259765625
0.1775,3.1380615234375,-2.3072509765625,-1.2662353515625
0.178,3.1380615234375,-2.7076416015625,-0.9058837890625
