wavelength,x,y,z
0.0,4.50439453125,-5.50537109375,-0.94091796875
0.0005,3.86376953125,-5.90576171875,0.06005859375
0.001,2.82275390625,-6.14599609375,1.26123046875
0.0015,1.42138671875,-6.38623046875,2.78271484375
0.002,0.14013671875,-6.42626953125,4.18408203125
0.0025,-0.78076171875,-6.42626953125,5.10498046875
0.003,-1.54150390625,-6.38623046875,5.86572265625
0.0035,-2.66259765625,-5.70556640625,6.46630859375
0.004,-4.10400390625,-4.34423828125,6.82666015625
0.0045,-5.26513671875,-3.06298828125,7.02685546875
0.005,-6.02587890625,-1.70166015625,6.74658203125
0.0055,-6.30615234375,-0.78076171875,6.46630859375
0.006,-6.34619140625,0.18017578125,5.94580078125
0.0065,-6.10595703125,1.30126953125,4.98486328125
0.007,-5.82568359375,2.58251953125,3.66357421875
0.0075,-5.54541015625,3.90380859375,2.26220703125
0.008,-5.06494140625,4.74462890625,1.14111328125
0.0085,-4.54443359375,5.30517578125,0.14013671875
0.009,-3.70361328125,5.54541015625,-0.82080078125
0.0095,-2.42236328125,5.62548828125,-2.10205078125
0.01,-1.10107421875,5.82568359375,-3.70361328125
0.0105,0.22021484375,5.78564453125,-4.86474609375
0.011,0.98095703125,5.78564453125,-5.70556640625
0.0115,1.74169921875,5.54541015625,-6.34619140625
0.012,2.86279296875,4.66455078125,-6.78662109375
0.0125,4.22412109375,3.30322265625,-7.06689453125
0.013,5.30517578125,1.94189453125,-7.10693359375
0.0135,5.82568359375,0.74072265625,-6.78662109375
0.014,6.06591796875,-0.22021484375,-6.50634765625
0.0145,5.94580078125,-1.10107421875,-5.90576171875
0.015,5.66552734375,-2.26220703125,-4.74462890625
0.0155,5.42529296875,-3.54345703125,-3.38330078125
0.016,5.10498046875,-4.78466796875,-2.10205078125
0.0165,4.58447265625,-5.54541015625,-0.98095703125
0.017,4.10400390625,-6.10595703125,-0.14013671875
0.0175,3.18310546875,-6.30615234375,0.94091796875
0.018,1.82177734375,-6.38623046875,2.34228515625
0.0185,0.46044921875,-6.54638671875,3.86376953125
0.019,-0.66064453125,-6.46630859375,4.90478515625
0.0195,-1.38134765625,-6.50634765625,5.74560546875
0.02,-2.26220703125,-6.10595703125,6.38623046875
0.0205,-3.58349609375,-4.98486328125,6.78662109375
0.021,-4.82470703125,-3.70361328125,7.06689453125
0.0215,-5.78564453125,-2.30224609375,6.98681640625
0.022,-6.26611328125,-1.22119140625,6.66650390625
0.0225,-6.38623046875,-0.38037109375,6.30615234375
0.023,-6.26611328125,0.66064453125,5.58544921875
0.0235,-6.02587890625,1.94189453125,4.34423828125
0.024,-5.74560546875,3.26318359375,2.98291015625
0.0245,-5.34521484375,4.34423828125,1.70166015625
0.025,-4.86474609375,5.02490234375,0.70068359375
0.0255,-4.22412109375,5.42529296875,-0.30029296875
0.026,-3.18310546875,5.62548828125,-1.42138671875
0.0265,-1.78173828125,5.78564453125,-2.90283203125
0.027,-0.42041015625,5.86572265625,-4.38427734375
0.0275,0.58056640625,5.82568359375,-5.26513671875
0.028,1.22119140625,5.78564453125,-6.02587890625
0.0285,2.26220703125,5.18505859375,-6.58642578125
0.029,3.62353515625,3.94384765625,-6.98681640625
0.0295,4.86474609375,2.62255859375,-7.18701171875
0.03,5.62548828125,1.26123046875,-6.98681640625
0.0305,5.98583984375,0.30029296875,-6.70654296875
0.031,6.06591796875,-0.62060546875,-6.26611328125
0.0315,5.82568359375,-1.66162109375,-5.34521484375
0.032,5.58544921875,-3.02294921875,-4.02392578125
0.0325,5.30517578125,-4.34423828125,-2.58251953125
0.033,4.86474609375,-5.30517578125,-1.42138671875
0.0335,4.38427734375,-5.98583984375,-0.50048828125
0.034,3.62353515625,-6.26611328125,0.58056640625
0.0345,2.38232421875,-6.38623046875,1.86181640625
0.035,0.98095703125,-6.58642578125,3.42333984375
0.0355,-0.38037109375,-6.54638671875,4.66455078125
0.036,-1.18115234375,-6.54638671875,5.58544921875
0.0365,-1.94189453125,-6.38623046875,6.26611328125
0.037,-3.14306640625,-5.50537109375,6.78662109375
0.0375,-4.54443359375,-4.14404296875,7.10693359375
0.038,-5.70556640625,-2.74267578125,7.18701171875
0.0385,-6.26611328125,-1.42138671875,6.82666015625
0.039,-6.50634765625,-0.58056640625,6.54638671875
0.0395,-6.42626953125,0.46044921875,5.90576171875
0.04,-6.14599609375,1.66162109375,4.70458984375
0.0405,-5.90576171875,2.90283203125,3.34326171875
0.041,-5.50537109375,4.22412109375,1.94189453125
0.0415,-5.02490234375,4.98486328125,0.90087890625
0.042,-4.50439453125,5.54541015625,0.02001953125
0.0425,-3.54345703125,5.74560546875,-1.14111328125
0.043,-2.10205078125,5.82568359375,-2.62255859375
0.0435,-0.74072265625,6.02587890625,-4.14404296875
0.044,0.50048828125,5.82568359375,-5.22509765625
0.0445,1.18115234375,5.82568359375,-5.98583984375
0.045,2.06201171875,5.42529296875,-6.54638671875
0.0455,3.34326171875,4.30419921875,-6.98681640625
0.046,4.62451171875,2.94287109375,-7.18701171875
0.0465,5.54541015625,1.58154296875,-7.06689453125
0.047,5.94580078125,0.50048828125,-6.74658203125
0.0475,6.06591796875,-0.42041015625,-6.38623046875
0.048,5.90576171875,-1.34130859375,-5.66552734375
0.0485,5.50537109375,-2.70263671875,-4.34423828125
0.049,5.38525390625,-3.98388671875,-3.10302734375
0.0495,4.94482421875,-5.06494140625,-1.78173828125
0.05,4.46435546875,-5.66552734375,-0.78076171875
0.0505,3.86376953125,-6.10595703125,0.18017578125
0.051,2.86279296875,-6.26611328125,1.26123046875
0.0515,1.54150390625,-6.42626953125,2.70263671875
0.052,0.18017578125,-6.42626953125,4.14404296875
0.0525,-0.82080078125,-6.42626953125,5.02490234375
0.053,-1.50146484375,-6.42626953125,5.78564453125
0.0535,-2.46240234375,-5.90576171875,6.38623046875
0.054,-3.82373046875,-4.66455078125,6.70654296875
0.0545,-4.98486328125,-3.46337890625,6.94677734375
0.055,-5.74560546875,-2.10205078125,6.74658203125
0.0555,-6.10595703125,-1.18115234375,6.54638671875
0.056,-6.22607421875,-0.34033203125,6.10595703125
0.0565,-6.14599609375,0.70068359375,5.42529296875
0.057,-5.82568359375,1.90185546875,4.14404296875
0.0575,-5.58544921875,3.18310546875,2.82275390625
0.058,-5.18505859375,4.22412109375,1.66162109375
0.0585,-4.78466796875,4.86474609375,0.78076171875
0.059,-4.10400390625,5.26513671875,-0.26025390625
0.0595,-2.98291015625,5.42529296875,-1.42138671875
0.06,-1.78173828125,5.74560546875,-2.86279296875
0.0605,-0.50048828125,5.70556640625,-4.18408203125
0.061,0.38037109375,5.78564453125,-5.10498046875
0.0615,1.14111328125,5.70556640625,-5.82568359375
0.062,2.18212890625,5.06494140625,-6.38623046875
0.0625,3.54345703125,3.82373046875,-6.74658203125
0.063,4.62451171875,2.54248046875,-6.90673828125
0.0635,5.34521484375,1.30126953125,-6.70654296875
0.064,5.66552734375,0.50048828125,-6.46630859375
0.0645,5.62548828125,-0.50048828125,-5.90576171875
0.065,5.50537109375,-1.54150390625,-5.10498046875
0.0655,5.34521484375,-2.82275390625,-3.94384765625
0.066,5.06494140625,-3.98388671875,-2.66259765625
0.0665,4.62451171875,-4.82470703125,-1.58154296875
0.067,4.30419921875,-5.50537109375,-0.70068359375
0.0675,3.50341796875,-5.78564453125,0.34033203125
0.068,2.34228515625,-5.98583984375,1.58154296875
0.0685,1.10107421875,-6.22607421875,3.06298828125
0.069,0.02001953125,-6.18603515625,4.10400390625
0.0695,-0.78076171875,-6.30615234375,4.98486328125
0.07,-1.58154296875,-6.10595703125,5.70556640625
0.0705,-2.74267578125,-5.26513671875,6.14599609375
0.071,-3.98388671875,-4.10400390625,6.50634765625
0.0715,-5.02490234375,-2.86279296875,6.54638671875
0.072,-5.58544921875,-1.78173828125,6.34619140625
0.0725,-5.86572265625,-1.02099609375,6.22607421875
0.073,-5.78564453125,-0.22021484375,5.58544921875
0.0735,-5.62548828125,0.94091796875,4.62451171875
0.074,-5.46533203125,2.22216796875,3.54345703125
0.0745,-5.14501953125,3.26318359375,2.38232421875
0.075,-4.82470703125,4.02392578125,1.42138671875
0.0755,-4.38427734375,4.62451171875,0.58056640625
0.076,-3.58349609375,4.90478515625,-0.50048828125
0.0765,-2.50244140625,5.14501953125,-1.74169921875
0.077,-1.34130859375,5.34521484375,-3.06298828125
0.0775,-0.46044921875,5.42529296875,-4.06396484375
0.078,0.34033203125,5.58544921875,-4.90478515625
0.0785,1.22119140625,5.26513671875,-5.54541015625
0.079,2.34228515625,4.42431640625,-6.02587890625
0.0795,3.54345703125,3.34326171875,-6.34619140625
0.08,4.38427734375,2.22216796875,-6.34619140625
0.0805,4.94482421875,1.30126953125,-6.22607421875
0.081,5.18505859375,0.50048828125,-6.10595703125
0.0815,5.22509765625,-0.50048828125,-5.58544921875
0.082,5.10498046875,-1.46142578125,-4.62451171875
0.0825,4.98486328125,-2.70263671875,-3.58349609375
0.083,4.70458984375,-3.70361328125,-2.54248046875
0.0835,4.50439453125,-4.50439453125,-1.70166015625
0.084,3.98388671875,-5.06494140625,-0.82080078125
0.0845,3.18310546875,-5.38525390625,0.30029296875
0.085,2.22216796875,-5.74560546875,1.58154296875
0.0855,1.10107421875,-5.90576171875,2.86279296875
0.086,0.30029296875,-6.10595703125,3.82373046875
0.0865,-0.50048828125,-6.22607421875,4.66455078125
0.087,-1.46142578125,-5.82568359375,5.38525390625
0.0875,-2.70263671875,-4.90478515625,5.86572265625
0.088,-3.86376953125,-3.78369140625,6.14599609375
0.0885,-4.66455078125,-2.58251953125,6.18603515625
0.089,-5.18505859375,-1.94189453125,6.10595703125
0.0895,-5.42529296875,-1.14111328125,5.82568359375
0.09,-5.38525390625,-0.18017578125,5.18505859375
0.0905,-5.38525390625,1.02099609375,4.34423828125
0.091,-5.22509765625,2.18212890625,3.22314453125
0.0915,-4.98486328125,3.10302734375,2.26220703125
0.092,-4.74462890625,3.86376953125,1.46142578125
0.0925,-4.18408203125,4.34423828125,0.62060546875
0.093,-3.22314453125,4.66455078125,-0.66064453125
0.0935,-2.26220703125,5.06494140625,-1.98193359375
0.094,-1.26123046875,5.18505859375,-3.10302734375
0.0945,-0.58056640625,5.42529296875,-4.06396484375
0.095,0.34033203125,5.42529296875,-4.86474609375
0.0955,1.42138671875,4.82470703125,-5.42529296875
0.096,2.58251953125,3.90380859375,-5.90576171875
0.0965,3.70361328125,2.90283203125,-6.10595703125
0.097,4.34423828125,1.78173828125,-6.10595703125
0.0975,4.78466796875,1.06103515625,-6.10595703125
0.098,4.94482421875,0.34033203125,-5.74560546875
0.0985,4.86474609375,-0.74072265625,-4.98486328125
0.099,4.86474609375,-1.86181640625,-4.14404296875
0.0995,4.74462890625,-2.98291015625,-3.10302734375
0.1,4.50439453125,-3.86376953125,-2.22216796875
0.1005,4.22412109375,-4.54443359375,-1.42138671875
0.101,3.58349609375,-4.98486328125,-0.50048828125
0.1015,2.70263671875,-5.42529296875,0.82080078125
0.102,1.66162109375,-5.70556640625,2.14208984375
0.1025,0.78076171875,-5.90576171875,3.18310546875
0.103,0.14013671875,-6.10595703125,4.10400390625
0.1035,-0.90087890625,-5.94580078125,4.86474609375
0.104,-2.06201171875,-5.22509765625,5.46533203125
0.1045,-3.22314453125,-4.22412109375,5.94580078125
0.105,-4.18408203125,-3.18310546875,5.98583984375
0.1055,-4.82470703125,-2.30224609375,6.02587890625
0.106,-5.18505859375,-1.58154296875,5.94580078125
0.1065,-5.26513671875,-0.70068359375,5.46533203125
0.107,-5.26513671875,0.38037109375,4.70458984375
0.1075,-5.26513671875,1.62158203125,3.70361328125
0.108,-5.02490234375,2.62255859375,2.70263671875
0.1085,-4.82470703125,3.46337890625,1.86181640625
0.109,-4.42431640625,4.06396484375,1.02099609375
0.1095,-3.62353515625,4.46435546875,-0.14013671875
0.11,-2.74267578125,4.90478515625,-1.42138671875
0.1105,-1.66162109375,5.10498046875,-2.62255859375
0.111,-0.90087890625,5.34521484375,-3.62353515625
0.1115,-0.14013671875,5.42529296875,-4.50439453125
0.112,0.90087890625,5.10498046875,-5.18505859375
0.1125,2.22216796875,4.34423828125,-5.74560546875
0.113,3.34326171875,3.18310546875,-6.10595703125
0.1135,4.14404296875,2.06201171875,-6.10595703125
0.114,4.66455078125,1.34130859375,-6.10595703125
0.1145,4.90478515625,0.62060546875,-5.86572265625
0.115,4.94482421875,-0.46044921875,-5.22509765625
0.1155,4.90478515625,-1.54150390625,-4.42431640625
0.116,4.82470703125,-2.70263671875,-3.34326171875
0.1165,4.58447265625,-3.70361328125,-2.38232421875
0.117,4.38427734375,-4.46435546875,-1.58154296875
0.1175,3.86376953125,-4.94482421875,-0.70068359375
0.118,2.94287109375,-5.26513671875,0.54052734375
0.1185,1.94189453125,-5.70556640625,1.90185546875
0.119,0.98095703125,-5.86572265625,2.98291015625
0.1195,0.26025390625,-6.10595703125,3.94384765625
0.12,-0.66064453125,-6.10595703125,4.78466796875
0.1205,-1.78173828125,-5.38525390625,5.42529296875
0.121,-3.06298828125,-4.50439453125,5.90576171875
0.1215,-4.18408203125,-3.34326171875,6.10595703125
0.122,-4.86474609375,-2.30224609375,6.06591796875
0.1225,-5.26513671875,-1.58154296875,5.98583984375
0.123,-5.38525390625,-0.78076171875,5.58544921875
0.1235,-5.30517578125,0.30029296875,4.82470703125
0.124,-5.30517578125,1.50146484375,3.86376953125
0.1245,-5.10498046875,2.62255859375,2.78271484375
0.125,-4.82470703125,3.50341796875,1.90185546875
0.1255,-4.50439453125,4.14404296875,1.06103515625
0.126,-3.78369140625,4.50439453125,0.06005859375
0.1265,-2.78271484375,4.86474609375,-1.30126953125
0.127,-1.74169921875,5.18505859375,-2.62255859375
0.1275,-0.82080078125,5.34521484375,-3.70361328125
0.128,-0.14013671875,5.50537109375,-4.54443359375
0.1285,0.90087890625,5.14501953125,-5.38525390625
0.129,2.06201171875,4.42431640625,-5.82568359375
0.1295,3.34326171875,3.34326171875,-6.22607421875
0.13,4.22412109375,2.22216796875,-6.26611328125
0.1305,4.82470703125,1.30126953125,-6.22607421875
0.131,5.10498046875,0.54052734375,-6.02587890625
0.1315,5.10498046875,-0.46044921875,-5.46533203125
0.132,5.06494140625,-1.54150390625,-4.50439453125
0.1325,4.98486328125,-2.86279296875,-3.46337890625
0.133,4.70458984375,-3.86376953125,-2.38232421875
0.1335,4.46435546875,-4.62451171875,-1.50146484375
0.134,3.90380859375,-5.14501953125,-0.62060546875
0.1345,3.02294921875,-5.46533203125,0.58056640625
0.135,1.98193359375,-5.82568359375,1.94189453125
0.1355,0.86083984375,-6.02587890625,3.22314453125
0.136,0.06005859375,-6.14599609375,4.14404296875
0.1365,-0.82080078125,-6.34619140625,4.90478515625
0.137,-1.86181640625,-5.74560546875,5.62548828125
0.1375,-3.18310546875,-4.62451171875,6.10595703125
0.138,-4.42431640625,-3.38330078125,6.38623046875
0.1385,-5.14501953125,-2.26220703125,6.30615234375
0.139,-5.58544921875,-1.42138671875,6.14599609375
0.1395,-5.70556640625,-0.62060546875,5.78564453125
0.14,-5.62548828125,0.54052734375,4.94482421875
0.1405,-5.46533203125,1.78173828125,3.90380859375
0.141,-5.30517578125,2.98291015625,2.70263671875
0.1415,-4.98486328125,3.86376953125,1.66162109375
0.142,-4.58447265625,4.50439453125,0.82080078125
0.1425,-3.90380859375,4.86474609375,-0.18017578125
0.143,-2.74267578125,5.10498046875,-1.46142578125
0.1435,-1.62158203125,5.42529296875,-2.86279296875
0.144,-0.58056640625,5.50537109375,-4.02392578125
0.1445,0.14013671875,5.62548828125,-4.82470703125
0.145,1.06103515625,5.38525390625,-5.62548828125
0.1455,2.26220703125,4.50439453125,-6.18603515625
0.146,3.58349609375,3.42333984375,-6.54638671875
0.1465,4.66455078125,2.18212890625,-6.66650390625
0.147,5.26513671875,1.10107421875,-6.46630859375
0.1475,5.50537109375,0.30029296875,-6.26611328125
0.148,5.50537109375,-0.66064453125,-5.74560546875
0.1485,5.30517578125,-1.90185546875,-4.62451171875
0.149,5.22509765625,-3.18310546875,-3.46337890625
0.1495,4.94482421875,-4.34423828125,-2.22216796875
0.15,4.54443359375,-5.10498046875,-1.26123046875
0.1505,4.02392578125,-5.62548828125,-0.38037109375
0.151,3.14306640625,-5.90576171875,0.78076171875
0.1515,1.86181640625,-6.14599609375,2.26220703125
0.152,0.58056640625,-6.34619140625,3.70361328125
0.1525,-0.34033203125,-6.30615234375,4.74462890625
0.153,-1.14111328125,-6.42626953125,5.46533203125
0.1535,-2.18212890625,-5.90576171875,6.10595703125
0.154,-3.58349609375,-4.74462890625,6.58642578125
0.1545,-4.82470703125,-3.46337890625,6.86669921875
0.155,-5.70556640625,-2.10205078125,6.70654296875
0.1555,-6.10595703125,-1.14111328125,6.46630859375
0.156,-6.18603515625,-0.30029296875,6.06591796875
0.1565,-6.06591796875,0.82080078125,5.18505859375
0.157,-5.78564453125,2.10205078125,3.90380859375
0.1575,-5.62548828125,3.50341796875,2.62255859375
0.158,-5.14501953125,4.46435546875,1.46142578125
0.1585,-4.70458984375,5.06494140625,0.54052734375
0.159,-3.94384765625,5.34521484375,-0.46044921875
0.1595,-2.74267578125,5.50537109375,-1.74169921875
0.16,-1.42138671875,5.78564453125,-3.30322265625
0.1605,0.02001953125,5.78564453125,-4.70458984375
0.161,0.66064453125,5.74560546875,-5.42529296875
0.1615,1.42138671875,5.58544921875,-6.10595703125
0.162,2.54248046875,4.82470703125,-6.66650390625
0.1625,3.98388671875,3.50341796875,-7.02685546875
0.163,5.10498046875,2.18212890625,-7.10693359375
0.1635,5.74560546875,0.94091796875,-6.82666015625
0.164,5.94580078125,0.02001953125,-6.54638671875
0.1645,5.90576171875,-0.94091796875,-5.94580078125
0.165,5.66552734375,-2.10205078125,-4.82470703125
0.1655,5.42529296875,-3.46337890625,-3.54345703125
0.166,5.10498046875,-4.66455078125,-2.18212890625
0.1665,4.66455078125,-5.50537109375,-1.10107421875
0.167,4.14404296875,-6.06591796875,-0.26025390625
0.1675,3.26318359375,-6.26611328125,0.82080078125
0.168,1.94189453125,-6.38623046875,2.26220703125
0.1685,0.58056640625,-6.70654296875,3.74365234375
0.169,-0.62060546875,-6.54638671875,4.94482421875
0.1695,-1.34130859375,-6.54638671875,5.74560546875
0.17,-2.26220703125,-6.14599609375,6.38623046875
0.1705,-3.54345703125,-5.06494140625,6.78662109375
0.171,-4.82470703125,-3.74365234375,7.10693359375
0.1715,-5.82568359375,-2.30224609375,7.06689453125
0.172,-6.30615234375,-1.26123046875,6.70654296875
0.1725,-6.42626953125,-0.34033203125,6.34619140625
0.173,-6.30615234375,0.66064453125,5.62548828125
0.1735,-6.02587890625,1.94189453125,4.34423828125
0.174,-5.74560546875,3.26318359375,3.02294921875
0.1745,-5.38525390625,4.42431640625,1.66162109375
0.175,-4.82470703125,5.10498046875,0.66064453125
0.1755,-4.22412109375,5.50537109375,-0.30029296875
0.176,-3.18310546875,5.66552734375,-1.38134765625
0.1765,-1.94189453125,5.74560546875,-2.86279296875
0.177,-0.50048828125,5.86572265625,-4.38427734375
0.1775,0.58056640625,5.78564453125,-5.30517578125
0.178,1.26123046875,5.78564453125,-6.02587890625
0.1785,2.22216796875,5.18505859375,-6.58642578125
0.179,3.58349609375,3.98388671875,-6.98681640625
0.1795,4.82470703125,2.70263671875,-7.18701171875
0.18,5.66552734375,1.38134765625,-7.02685546875
0.1805,5.98583984375,0.34033203125,-6.70654296875
0.181,6.06591796875,-0.58056640625,-6.26611328125
0.1815,5.90576171875,-1.54150390625,-5.42529296875
0.182,5.58544921875,-2.86279296875,-4.14404296875
0.1825,5.30517578125,-4.18408203125,-2.82275390625
0.183,4.86474609375,-5.18505859375,-1.54150390625
0.1835,4.42431640625,-5.82568359375,-0.62060546875
0.184,3.66357421875,-6.22607421875,0.46044921875
0.1845,2.42236328125,-6.38623046875,1.74169921875
0.185,1.14111328125,-6.62646484375,3.22314453125
0.1855,-0.22021484375,-6.66650390625,4.50439453125
0.186,-1.06103515625,-6.54638671875,5.42529296875
0.1865,-1.78173828125,-6.42626953125,6.10595703125
0.187,-2.90283203125,-5.66552734375,6.66650390625
0.1875,-4.34423828125,-4.34423828125,7.02685546875
0.188,-5.54541015625,-2.90283203125,7.14697265625
0.1885,-6.22607421875,-1.62158203125,6.86669921875
0.189,-6.42626953125,-0.70068359375,6.54638671875
0.1895,-6.42626953125,0.26025390625,5.98583984375
0.19,-6.18603515625,1.42138671875,4.90478515625
0.1905,-5.94580078125,2.78271484375,3.58349609375
0.191,-5.62548828125,4.06396484375,2.22216796875
0.1915,-5.10498046875,4.90478515625,1.06103515625
0.192,-4.58447265625,5.42529296875,0.18017578125
0.1925,-3.62353515625,5.70556640625,-0.98095703125
0.193,-2.30224609375,5.74560546875,-2.42236328125
0.1935,-0.98095703125,5.98583984375,-3.98388671875
0.194,0.30029296875,5.90576171875,-5.10498046875
0.1945,1.02099609375,5.90576171875,-5.86572265625
0.195,1.86181640625,5.58544921875,-6.50634765625
0.1955,3.14306640625,4.50439453125,-6.94677734375
0.196,4.50439453125,3.14306640625,-7.22705078125
0.1965,5.46533203125,1.74169921875,-7.14697265625
0.197,6.02587890625,0.58056640625,-6.86669921875
0.1975,6.10595703125,-0.34033203125,-6.50634765625
0.198,5.98583984375,-1.26123046875,-5.74560546875
0.1985,5.66552734375,-2.54248046875,-4.50439453125
0.199,5.42529296875,-3.86376953125,-3.18310546875
