wavelength,x,y,z
0.0,-1.3162841796875,-16.651245117188,17.662231445312
0.0005,2.6075439453125,-18.693237304688,15.980590820312
0.001,5.8106689453125,-19.934448242188,14.258911132812
0.0015,8.5733642578125,-19.814331054688,11.496215820312
0.002,11.536254882812,-19.494018554688,8.4932861328125
0.0025,15.059692382812,-18.813354492188,4.4493408203125
0.003,17.742309570312,-17.131713867188,0.0050048828125
0.0035,19.383911132812,-15.249877929688,-3.3983154296875
0.004,19.944458007812,-12.967651367188,-6.2010498046875
0.0045,19.904418945312,-10.285034179688,-8.8436279296875
0.005,19.263793945312,-5.8006591796875,-12.647338867188
0.0055,18.503051757812,-2.1571044921875,-15.530151367188
0.006,16.981567382812,1.8868408203125,-18.012573242188
0.0065,15.099731445312,5.2501220703125,-19.574096679688
0.007,12.216918945312,7.9327392578125,-19.574096679688
0.0075,9.2540283203125,10.855590820312,-19.614135742188
0.008,4.4093017578125,14.699340820312,-18.733276367188
0.0085,-0.3953857421875,17.421997070312,-16.971557617188
0.009,-3.7186279296875,18.903442382812,-15.410034179688
0.0095,-6.7215576171875,19.904418945312,-13.608276367188
0.01,-9.4842529296875,19.784301757812,-10.805541992188
0.0105,-12.887573242188,19.063598632812,-6.8016357421875
0.011,-16.090698242188,18.262817382812,-3.1981201171875
0.0115,-18.613159179688,16.501098632812,1.3262939453125
0.012,-19.854370117188,14.499145507812,4.4493408203125
0.0125,-20.014526367188,11.816528320312,7.1719970703125
0.013,-20.054565429688,9.0137939453125,10.054809570312
0.0135,-19.373901367188,4.5294189453125,13.938598632812
0.014,-18.212768554688,0.4454345703125,16.821411132812
0.0145,-16.531127929688,-3.1981201171875,18.823364257812
0.015,-14.689331054688,-6.3612060546875,20.184692382812
0.0155,-11.526245117188,-9.1639404296875,19.904418945312
0.016,-7.5623779296875,-12.567260742188,19.504028320312
0.0165,-3.0780029296875,-16.010620117188,18.703247070312
0.017,1.8067626953125,-18.613159179688,16.701293945312
0.0175,4.9298095703125,-19.854370117188,14.979614257812
0.018,7.8526611328125,-20.334838867188,12.777465820312
0.0185,10.695434570312,-20.214721679688,10.054809570312
0.019,14.579223632812,-19.253784179688,5.4102783203125
0.0195,17.582153320312,-18.052612304688,1.2462158203125
0.02,19.624145507812,-16.290893554688,-2.5975341796875
0.0205,20.545043945312,-14.128784179688,-5.6405029296875
0.021,20.424926757812,-10.925659179688,-8.6834716796875
0.0215,20.224731445312,-7.5623779296875,-11.806518554688
0.022,19.624145507812,-3.3582763671875,-15.450073242188
0.0225,17.942504882812,1.2462158203125,-18.332885742188
0.023,15.980590820312,4.6495361328125,-19.814331054688
0.0235,13.818481445312,7.6925048828125,-20.775268554688
0.024,10.415161132812,10.735473632812,-20.535034179688
0.0245,5.4102783203125,14.659301757812,-19.413940429688
0.025,1.0460205078125,17.622192382812,-18.453002929688
0.0255,-3.5584716796875,19.864379882812,-16.531127929688
0.026,-6.6014404296875,20.745239257812,-14.489135742188
0.0265,-9.7645263671875,20.785278320312,-11.566284179688
0.027,-12.767456054688,20.545043945312,-8.4832763671875
0.0275,-16.571166992188,19.504028320312,-3.7586669921875
0.028,-19.453979492188,17.582153320312,1.0059814453125
0.0285,-20.975463867188,15.620239257812,4.4893798828125
0.029,-21.656127929688,13.137817382812,7.5323486328125
0.0295,-21.295776367188,9.6544189453125,10.655395507812
0.03,-20.615112304688,5.4102783203125,14.138793945312
0.0305,-19.814331054688,1.3262939453125,17.462036132812
0.031,-17.932495117188,-3.3182373046875,20.224731445312
0.0315,-15.570190429688,-6.5614013671875,21.225708007812
0.032,-12.847534179688,-9.6444091796875,21.626098632812
0.0325,-9.0438232421875,-12.887573242188,21.345825195312
0.033,-3.5584716796875,-16.771362304688,19.904418945312
0.0335,1.2462158203125,-19.534057617188,18.062622070312
0.034,5.1700439453125,-21.215698242188,16.180786132812
0.0345,8.2530517578125,-21.776245117188,13.898559570312
0.035,11.496215820312,-21.415893554688,10.455200195312
0.0355,14.779418945312,-20.775268554688,6.6114501953125
0.036,18.262817382812,-19.534057617188,2.0469970703125
0.0365,20.825317382812,-17.331909179688,-2.7176513671875
0.037,21.746215820312,-15.049682617188,-5.8406982421875
0.0375,22.066528320312,-12.206909179688,-8.9637451171875
0.038,21.586059570312,-8.4832763671875,-12.206909179688
0.0385,20.585083007812,-3.8787841796875,-15.770385742188
0.039,19.223754882812,0.3253173828125,-18.653198242188
0.0395,17.301879882812,4.5294189453125,-20.975463867188
0.04,14.699340820312,7.6925048828125,-21.536010742188
0.0405,11.376098632812,10.735473632812,-21.495971679688
0.041,7.2120361328125,14.218872070312,-20.935424804688
0.0415,2.0870361328125,17.782348632812,-19.654174804688
0.042,-2.8377685546875,20.144653320312,-17.331909179688
0.0425,-6.1209716796875,21.305786132812,-15.530151367188
0.043,-9.1639404296875,21.746215820312,-13.087768554688
0.0435,-12.327026367188,21.185668945312,-9.4842529296875
0.044,-15.890502929688,20.224731445312,-5.3602294921875
0.0445,-19.013549804688,18.823364257812,-0.6756591796875
0.045,-21.295776367188,16.581176757812,3.8087158203125
0.0455,-21.776245117188,14.098754882812,6.6915283203125
0.046,-21.856323242188,10.975708007812,9.9346923828125
0.0465,-21.495971679688,7.0518798828125,13.257934570312
0.047,-20.494995117188,2.6475830078125,16.821411132812
0.0475,-18.653198242188,-1.7967529296875,19.423950195312
0.048,-16.731323242188,-5.4803466796875,21.265747070312
0.0485,-14.168823242188,-8.4832763671875,21.786254882812
0.049,-10.365112304688,-11.726440429688,21.345825195312
0.0495,-5.8006591796875,-15.249877929688,20.464965820312
0.05,-0.7957763671875,-18.533081054688,19.023559570312
0.0505,3.8887939453125,-20.655151367188,16.781372070312
0.051,6.8516845703125,-21.335815429688,14.739379882812
0.0515,9.9747314453125,-21.616088867188,12.096801757812
0.052,13.297973632812,-21.175659179688,8.1729736328125
0.0525,16.781372070312,-19.894409179688,3.8487548828125
0.053,19.584106445312,-18.132690429688,-0.6356201171875
0.0535,21.505981445312,-16.050659179688,-4.6395263671875
0.054,21.746215820312,-13.368041992188,-7.5223388671875
0.0545,21.626098632812,-9.9647216796875,-10.805541992188
0.055,20.945434570312,-5.8006591796875,-14.248901367188
0.0555,20.024536132812,-1.4364013671875,-17.692260742188
0.056,17.942504882812,3.0079345703125,-20.094604492188
0.0565,15.900512695312,6.2510986328125,-21.295776367188
0.057,13.137817382812,9.3341064453125,-21.776245117188
0.0575,8.7335205078125,12.937622070312,-21.135620117188
0.058,4.0889892578125,16.300903320312,-20.174682617188
0.0585,-0.8358154296875,19.343872070312,-18.453002929688
0.059,-5.0799560546875,21.185668945312,-16.370971679688
0.0595,-7.9227294921875,21.505981445312,-14.048706054688
0.06,-11.045776367188,21.626098632812,-11.165893554688
0.0605,-14.769409179688,20.785278320312,-6.7615966796875
0.061,-18.132690429688,19.504028320312,-2.2772216796875
0.0615,-20.575073242188,17.462036132812,2.2471923828125
0.062,-21.976440429688,15.259887695312,5.7305908203125
0.0625,-22.096557617188,12.337036132812,8.7735595703125
0.063,-21.816284179688,8.4532470703125,12.296997070312
0.0635,-20.975463867188,4.2891845703125,15.700317382812
0.064,-19.734252929688,-0.3153076171875,18.943481445312
0.0645,-17.572143554688,-4.6395263671875,21.145629882812
0.065,-15.089721679688,-7.6424560546875,21.746215820312
0.0655,-12.206909179688,-10.765502929688,22.066528320312
0.066,-7.1619873046875,-14.729370117188,21.185668945312
0.0665,-2.3172607421875,-17.812377929688,19.784301757812
0.067,2.4073486328125,-20.214721679688,17.782348632812
0.0675,6.2110595703125,-21.776245117188,15.820434570312
0.068,9.0938720703125,-21.776245117188,13.057739257812
0.0685,12.256958007812,-21.536010742188,9.8546142578125
0.069,15.980590820312,-20.655151367188,5.4102783203125
0.0695,19.183715820312,-19.053588867188,0.6456298828125
0.07,21.225708007812,-16.851440429688,-3.5584716796875
0.0705,21.986450195312,-14.489135742188,-6.6414794921875
0.071,22.026489257812,-11.406127929688,-9.7244873046875
0.0715,21.465942382812,-7.0418701171875,-13.488159179688
0.072,20.505004882812,-3.0379638671875,-16.651245117188
0.0725,18.903442382812,1.4063720703125,-19.413940429688
0.073,16.781372070312,5.4503173828125,-21.415893554688
0.0735,13.818481445312,8.3331298828125,-21.455932617188
0.074,10.735473632812,11.416137695312,-21.536010742188
0.0745,5.6104736328125,15.339965820312,-20.494995117188
0.075,0.6856689453125,18.422973632812,-18.933471679688
0.0755,-3.5184326171875,20.304809570312,-16.891479492188
0.076,-6.8416748046875,21.465942382812,-14.969604492188
0.0765,-9.8446044921875,21.385864257812,-12.046752929688
0.077,-13.167846679688,20.705200195312,-8.2030029296875
0.0775,-16.531127929688,19.904418945312,-4.1590576171875
0.078,-19.453979492188,18.022583007812,0.6055908203125
0.0785,-21.175659179688,15.860473632812,4.4493408203125
0.079,-21.455932617188,13.257934570312,7.2120361328125
0.0795,-21.536010742188,10.255004882812,10.214965820312
0.08,-20.775268554688,5.6505126953125,14.098754882812
0.0805,-19.734252929688,1.5665283203125,17.221801757812
0.081,-17.972534179688,-2.5574951171875,19.463989257812
0.0815,-16.090698242188,-6.1209716796875,21.185668945312
0.082,-13.007690429688,-8.9237060546875,21.105590820312
0.0825,-9.2440185546875,-12.206909179688,20.785278320312
0.083,-4.6395263671875,-15.730346679688,19.864379882812
0.0835,0.4454345703125,-18.693237304688,18.062622070312
0.084,4.2891845703125,-20.334838867188,16.100708007812
0.0845,7.1719970703125,-20.895385742188,14.058715820312
0.085,10.094848632812,-21.015502929688,11.376098632812
0.0855,13.898559570312,-20.094604492188,6.8516845703125
0.086,16.941528320312,-19.173706054688,2.8477783203125
0.0865,19.423950195312,-17.371948242188,-1.3162841796875
0.087,20.905395507812,-15.329956054688,-4.7996826171875
0.0875,20.825317382812,-12.447143554688,-7.6024169921875
0.088,20.825317382812,-9.2440185546875,-10.765502929688
0.0885,20.184692382812,-4.9197998046875,-14.449096679688
0.089,18.943481445312,-0.5555419921875,-17.612182617188
0.0895,16.981567382812,3.2882080078125,-19.494018554688
0.09,15.059692382812,6.4512939453125,-20.655151367188
0.0905,12.096801757812,9.3741455078125,-20.815307617188
0.091,7.3321533203125,13.177856445312,-19.974487304688
0.0915,3.2081298828125,16.300903320312,-19.213745117188
0.092,-1.6365966796875,18.943481445312,-17.291870117188
0.0925,-5.2000732421875,20.424926757812,-15.410034179688
0.093,-7.9627685546875,20.464965820312,-12.967651367188
0.0935,-10.885620117188,20.625122070312,-10.325073242188
0.094,-14.849487304688,19.704223632812,-5.6405029296875
0.0945,-17.852416992188,18.222778320312,-1.2362060546875
0.095,-19.814331054688,16.421020507812,2.5274658203125
0.0955,-21.095581054688,14.218872070312,5.6905517578125
0.096,-20.775268554688,11.255981445312,8.5333251953125
0.0965,-20.494995117188,7.3721923828125,12.096801757812
0.097,-19.894409179688,3.4884033203125,15.380004882812
0.0975,-18.453002929688,-0.9959716796875,18.382934570312
0.098,-16.370971679688,-4.6795654296875,20.064575195312
0.0985,-13.968627929688,-7.4422607421875,20.545043945312
0.099,-11.125854492188,-10.405151367188,20.785278320312
0.0995,-5.7205810546875,-14.449096679688,19.624145507812
0.1,-1.3162841796875,-17.331909179688,18.302856445312
0.1005,2.8077392578125,-19.373901367188,16.581176757812
0.101,6.1309814453125,-20.655151367188,14.739379882812
0.1015,8.8936767578125,-20.414916992188,11.856567382812
0.102,12.016723632812,-20.174682617188,8.6934814453125
0.1025,15.660278320312,-19.453979492188,4.4893798828125
0.103,18.543090820312,-17.572143554688,-0.1951904296875
0.1035,19.984497070312,-15.810424804688,-3.5584716796875
0.104,20.625122070312,-13.408081054688,-6.4412841796875
0.1045,20.545043945312,-10.565307617188,-9.2440185546875
0.105,19.824340820312,-5.9207763671875,-13.087768554688
0.1055,19.023559570312,-2.2371826171875,-16.010620117188
0.106,17.542114257812,1.9268798828125,-18.573120117188
0.1065,15.500122070312,5.3702392578125,-20.054565429688
0.107,12.577270507812,8.0928955078125,-19.974487304688
0.1075,9.4542236328125,11.215942382812,-20.054565429688
0.108,4.4893798828125,15.019653320312,-19.093627929688
0.1085,-0.3553466796875,17.702270507812,-17.291870117188
0.109,-3.6785888671875,19.183715820312,-15.650268554688
0.1095,-6.6414794921875,20.144653320312,-13.808471679688
0.11,-9.4041748046875,19.864379882812,-10.965698242188
0.1105,-12.887573242188,19.183715820312,-6.9217529296875
0.111,-16.010620117188,18.382934570312,-3.1981201171875
0.1115,-18.453002929688,16.621215820312,1.1260986328125
0.112,-19.614135742188,14.659301757812,4.1290283203125
0.1125,-19.814331054688,12.096801757812,6.8116455078125
0.113,-19.854370117188,9.2540283203125,9.6143798828125
0.1135,-19.213745117188,4.7696533203125,13.418090820312
0.114,-18.012573242188,0.8458251953125,16.260864257812
0.1145,-16.451049804688,-2.7176513671875,18.182739257812
0.115,-14.729370117188,-5.7606201171875,19.504028320312
0.1155,-11.686401367188,-8.3631591796875,19.343872070312
0.116,-7.8426513671875,-11.726440429688,18.903442382812
0.1165,-3.5985107421875,-15.089721679688,18.222778320312
0.117,1.0059814453125,-17.572143554688,16.340942382812
0.1175,4.0089111328125,-18.733276367188,14.779418945312
0.118,6.7315673828125,-19.253784179688,12.777465820312
0.1185,9.3341064453125,-19.293823242188,10.375122070312
0.119,13.137817382812,-18.533081054688,5.9307861328125
0.1195,15.980590820312,-17.452026367188,2.0870361328125
0.12,17.982543945312,-15.890502929688,-1.4364013671875
0.1205,19.023559570312,-14.048706054688,-4.2391357421875
0.121,18.743286132812,-11.366088867188,-6.8016357421875
0.1215,18.823364257812,-8.0828857421875,-10.004760742188
0.122,18.543090820312,-4.2391357421875,-13.488159179688
0.1225,17.141723632812,-0.1551513671875,-16.210815429688
0.123,15.660278320312,3.2081298828125,-17.732299804688
0.1235,13.618286132812,5.8507080078125,-18.733276367188
0.124,10.815551757812,8.5733642578125,-18.773315429688
0.1245,6.0909423828125,12.296997070312,-17.972534179688
0.125,2.2071533203125,15.259887695312,-17.171752929688
0.1255,-1.7967529296875,17.421997070312,-15.650268554688
0.126,-4.6795654296875,18.503051757812,-14.088745117188
0.1265,-7.3621826171875,18.583129882812,-11.606323242188
0.127,-10.204956054688,18.583129882812,-9.0037841796875
0.1275,-13.808471679688,17.982543945312,-4.8397216796875
0.128,-16.531127929688,16.421020507812,-0.7156982421875
0.1285,-18.012573242188,14.859497070312,2.3272705078125
0.129,-18.853393554688,12.937622070312,5.0499267578125
0.1295,-18.773315429688,10.214965820312,7.6524658203125
0.13,-18.332885742188,6.3311767578125,11.175903320312
0.1305,-17.972534179688,2.7677001953125,14.298950195312
0.131,-16.651245117188,-1.2362060546875,16.901489257812
0.1315,-14.889526367188,-4.1990966796875,18.222778320312
0.132,-12.567260742188,-6.8416748046875,18.623168945312
0.1325,-9.6444091796875,-9.7645263671875,18.783325195312
0.133,-4.7596435546875,-13.568237304688,17.862426757812
0.1335,-0.5155029296875,-16.170776367188,16.421020507812
0.134,2.8077392578125,-17.892456054688,15.099731445312
0.1345,5.6104736328125,-18.813354492188,13.418090820312
0.135,8.2930908203125,-18.693237304688,10.735473632812
0.1355,11.496215820312,-18.332885742188,7.3321533203125
0.136,14.739379882812,-17.692260742188,3.5684814453125
0.1365,17.261840820312,-16.010620117188,-0.5955810546875
0.137,18.262817382812,-14.288940429688,-3.2781982421875
0.1375,18.703247070312,-12.046752929688,-5.9608154296875
0.138,18.703247070312,-9.2440185546875,-8.6834716796875
0.1385,18.142700195312,-5.0799560546875,-12.327026367188
0.139,17.261840820312,-1.3162841796875,-15.129760742188
0.1395,15.860473632812,2.2471923828125,-17.331909179688
0.14,14.018676757812,5.0899658203125,-18.412963867188
0.1405,11.215942382812,7.7725830078125,-18.332885742188
0.141,7.7325439453125,11.015747070312,-18.252807617188
0.1415,3.3282470703125,14.459106445312,-17.492065429688
0.142,-1.1160888671875,16.821411132812,-15.690307617188
0.1425,-3.8387451171875,18.022583007812,-14.369018554688
0.143,-6.5614013671875,18.703247070312,-12.527221679688
0.1435,-9.2840576171875,18.543090820312,-9.7645263671875
0.144,-12.767456054688,17.902465820312,-5.7606201171875
0.1445,-15.650268554688,16.901489257812,-2.0369873046875
0.145,-17.812377929688,15.219848632812,1.7667236328125
0.1455,-18.533081054688,13.338012695312,4.2891845703125
0.146,-18.653198242188,10.735473632812,7.0518798828125
0.1465,-18.573120117188,7.7325439453125,10.014770507812
0.147,-18.132690429688,3.7286376953125,13.538208007812
0.1475,-16.731323242188,-0.3153076171875,16.140747070312
0.148,-15.289916992188,-3.3582763671875,17.782348632812
0.1485,-13.408081054688,-6.1209716796875,18.703247070312
0.149,-10.325073242188,-8.8436279296875,18.463012695312
0.1495,-6.1209716796875,-12.286987304688,17.902465820312
0.15,-1.9569091796875,-15.410034179688,16.941528320312
0.1505,2.2471923828125,-17.532104492188,15.259887695312
0.151,4.7296142578125,-18.332885742188,13.778442382812
0.1515,7.4522705078125,-18.693237304688,11.536254882812
0.152,10.375122070312,-18.453002929688,8.5733642578125
0.1525,13.778442382812,-17.812377929688,4.6094970703125
0.153,16.340942382812,-16.411010742188,0.7257080078125
0.1535,18.022583007812,-14.889526367188,-2.5574951171875
0.154,18.583129882812,-12.767456054688,-5.0799560546875
0.1545,18.463012695312,-9.9647216796875,-7.8026123046875
0.155,18.062622070312,-6.3612060546875,-10.965698242188
0.1555,17.622192382812,-2.6375732421875,-14.248901367188
0.156,16.100708007812,1.3262939453125,-16.651245117188
0.1565,14.419067382812,4.0889892578125,-17.652221679688
0.157,12.337036132812,6.6915283203125,-18.412963867188
0.1575,9.0137939453125,9.7344970703125,-18.212768554688
0.158,4.6495361328125,13.097778320312,-17.371948242188
0.1585,0.6055908203125,15.780395507812,-16.170776367188
0.159,-2.8778076171875,17.622192382812,-14.769409179688
0.1595,-5.4002685546875,18.182739257812,-13.087768554688
0.16,-8.0028076171875,18.262817382812,-10.645385742188
0.1605,-11.205932617188,17.902465820312,-7.3221435546875
0.161,-14.409057617188,17.141723632812,-3.4383544921875
0.1615,-16.771362304688,15.500122070312,0.4854736328125
0.162,-17.892456054688,13.938598632812,3.1680908203125
0.1625,-18.412963867188,11.816528320312,5.7305908203125
0.163,-18.252807617188,8.8536376953125,8.5733642578125
0.1635,-17.812377929688,5.0899658203125,11.856567382812
0.164,-17.051635742188,1.4063720703125,14.739379882812
0.1645,-15.650268554688,-2.2772216796875,17.141723632812
0.165,-13.808471679688,-4.8397216796875,17.782348632812
0.1655,-11.486206054688,-7.4422607421875,18.142700195312
0.166,-7.7625732421875,-10.645385742188,17.942504882812
0.1665,-3.1981201171875,-13.848510742188,16.941528320312
0.167,0.6456298828125,-16.290893554688,15.500122070312
0.1675,3.5684814453125,-17.772338867188,14.218872070312
0.168,6.1309814453125,-18.252807617188,12.337036132812
0.1685,8.8936767578125,-18.212768554688,9.6544189453125
0.169,12.216918945312,-17.812377929688,6.0909423828125
0.1695,15.179809570312,-16.811401367188,2.2071533203125
0.17,17.341918945312,-15.209838867188,-1.5565185546875
0.1705,18.062622070312,-13.368041992188,-3.9588623046875
0.171,18.382934570312,-10.965698242188,-6.6815185546875
0.1715,18.182739257812,-7.5623779296875,-9.8446044921875
0.172,17.742309570312,-3.9188232421875,-13.087768554688
0.1725,16.501098632812,-0.1551513671875,-15.650268554688
0.173,15.139770507812,3.2081298828125,-17.652221679688
0.1735,12.977661132812,5.8106689453125,-18.132690429688
0.174,10.174926757812,8.6134033203125,-18.212768554688
0.1745,6.1710205078125,12.096801757812,-17.692260742188
0.175,1.7667236328125,15.179809570312,-16.691284179688
0.1755,-2.1571044921875,17.141723632812,-15.049682617188
0.176,-4.7996826171875,18.222778320312,-13.528198242188
0.1765,-7.4822998046875,18.543090820312,-11.486206054688
0.177,-10.565307617188,18.102661132812,-8.1629638671875
0.1775,-13.768432617188,17.582153320312,-4.5594482421875
0.178,-16.370971679688,16.260864257812,-0.6356201171875
