wavelength,x,y,z
0.0,-21.986450195312,19.974487304688,1.4364013671875
0.0005,-25.029418945312,18.733276367188,5.7205810546875
0.001,-25.189575195312,14.449096679688,10.204956054688
0.0015,-25.990356445312,11.446166992188,15.369995117188
0.002,-23.828247070312,6.6815185546875,16.811401367188
0.0025,-21.145629882812,1.3963623046875,19.373901367188
0.003,-18.943481445312,-3.3682861328125,21.936401367188
0.0035,-16.701293945312,-8.2130126953125,24.538940429688
0.004,-13.217895507812,-13.017700195312,25.900268554688
0.0045,-8.4932861328125,-16.501098632812,24.498901367188
0.005,-3.9688720703125,-18.743286132812,22.296752929688
0.0055,2.1571044921875,-21.345825195312,18.933471679688
0.006,6.7215576171875,-24.428833007812,17.612182617188
0.0065,11.566284179688,-25.149536132812,13.488159179688
0.007,15.129760742188,-26.630981445312,11.566284179688
0.0075,18.212768554688,-23.748168945312,5.7606201171875
0.008,20.695190429688,-22.066528320312,1.5164794921875
0.0085,23.017456054688,-19.383911132812,-3.5684814453125
0.009,25.579956054688,-17.622192382812,-8.0128173828125
0.0095,25.459838867188,-13.458129882812,-12.216918945312
0.01,25.419799804688,-9.6544189453125,-15.900512695312
0.0105,22.977416992188,-5.4503173828125,-17.742309570312
0.011,20.014526367188,0.4754638671875,-20.665161132812
0.0115,18.292846679688,4.8397216796875,-23.387817382812
0.012,14.769409179688,10.084838867188,-25.029418945312
0.0125,12.286987304688,13.928588867188,-26.310668945312
0.013,6.0809326171875,17.411987304688,-23.588012695312
0.0135,1.9168701171875,19.333862304688,-21.465942382812
0.014,-4.0489501953125,22.136596679688,-18.463012695312
0.0145,-8.5333251953125,25.259643554688,-17.141723632812
0.015,-13.097778320312,25.459838867188,-12.697387695312
0.0155,-16.300903320312,26.100463867188,-10.455200195312
0.016,-18.583129882812,24.338745117188,-3.8487548828125
0.0165,-21.385864257812,20.895385742188,-0.1651611328125
0.017,-23.588012695312,18.693237304688,4.1990966796875
0.0175,-25.589965820312,15.810424804688,9.2039794921875
0.018,-25.589965820312,12.527221679688,12.607299804688
0.0185,-24.308715820312,7.4822998046875,16.491088867188
0.019,-22.106567382812,3.9588623046875,17.812377929688
0.0195,-19.263793945312,-2.0870361328125,21.015502929688
0.02,-17.662231445312,-6.5714111328125,23.898315429688
0.0205,-13.458129882812,-11.696411132812,24.699096679688
0.021,-11.255981445312,-14.899536132812,25.740112304688
0.0215,-4.8096923828125,-17.782348632812,22.136596679688
0.022,-0.3253173828125,-19.944458007812,19.894409179688
0.0225,4.7996826171875,-22.506958007812,17.572143554688
0.023,9.9246826171875,-25.309692382812,16.651245117188
0.0235,13.608276367188,-25.189575195312,11.646362304688
0.024,17.091674804688,-24.749145507812,7.8026123046875
0.0245,18.733276367188,-22.306762695312,3.7586669921875
0.025,21.896362304688,-20.064575195312,-1.8067626953125
0.0255,23.818237304688,-18.262817382812,-5.6505126953125
0.026,25.099487304688,-14.499145507812,-10.655395507812
0.0265,25.339721679688,-11.976684570312,-13.458129882812
0.027,22.977416992188,-6.1710205078125,-16.981567382812
0.0275,20.855346679688,-2.6075439453125,-18.463012695312
0.028,18.533081054688,2.8778076171875,-21.586059570312
0.0285,16.370971679688,7.9227294921875,-24.428833007812
0.029,12.286987304688,12.286987304688,-24.709106445312
0.0295,9.2440185546875,15.650268554688,-24.909301757812
0.03,3.5985107421875,17.772338867188,-21.465942382812
0.0305,-1.7266845703125,20.575073242188,-19.103637695312
0.031,-5.6905517578125,22.857299804688,-17.502075195312
0.0315,-11.255981445312,25.219604492188,-14.419067382812
0.032,-13.858520507812,24.979370117188,-11.696411132812
0.0325,-17.582153320312,23.337768554688,-6.4512939453125
0.033,-18.983520507812,21.175659179688,-2.9678955078125
0.0335,-22.146606445312,19.293823242188,2.3572998046875
0.034,-23.908325195312,16.851440429688,6.5213623046875
0.0345,-24.548950195312,13.007690429688,11.085815429688
0.035,-24.749145507812,10.285034179688,15.369995117188
0.0355,-20.505004882812,4.7996826171875,16.611206054688
0.036,-19.704223632812,0.6356201171875,18.773315429688
0.0365,-18.142700195312,-3.8887939453125,21.656127929688
0.037,-15.139770507812,-9.6944580078125,24.178588867188
0.0375,-11.696411132812,-12.777465820312,24.058471679688
0.038,-7.2520751953125,-16.300903320312,24.338745117188
0.0385,-1.2862548828125,-17.822387695312,19.974487304688
0.039,2.9979248046875,-21.025512695312,17.852416992188
0.0395,6.6815185546875,-22.947387695312,16.170776367188
0.04,12.166870117188,-24.869262695312,12.687377929688
0.0405,14.489135742188,-24.388793945312,9.9647216796875
0.041,17.612182617188,-22.266723632812,4.6795654296875
0.0415,19.453979492188,-20.144653320312,0.7557373046875
0.042,22.256713867188,-18.663208007812,-3.4884033203125
0.0425,23.858276367188,-15.460083007812,-8.3331298828125
0.043,23.978393554688,-12.216918945312,-11.816528320312
0.0435,23.537963867188,-8.6934814453125,-15.019653320312
0.044,20.454956054688,-2.5675048828125,-16.821411132812
0.0445,18.613159179688,0.8758544921875,-19.624145507812
0.045,17.011596679688,4.9197998046875,-22.066528320312
0.0455,13.728393554688,10.525268554688,-24.428833007812
0.046,10.605346679688,13.448120117188,-23.868286132812
0.0465,5.3602294921875,16.531127929688,-21.946411132812
0.047,0.9158935546875,18.212768554688,-17.942504882812
0.0475,-4.1290283203125,21.576049804688,-17.782348632812
0.048,-8.2930908203125,23.137573242188,-15.259887695312
0.0485,-12.697387695312,24.578979492188,-12.377075195312
0.049,-14.098754882812,23.537963867188,-8.8536376953125
0.0495,-17.862426757812,21.295776367188,-4.1290283203125
0.05,-20.144653320312,19.173706054688,0.3553466796875
0.0505,-22.426879882812,17.812377929688,4.0389404296875
0.051,-23.908325195312,14.328979492188,9.1239013671875
0.0515,-23.588012695312,11.005737304688,12.166870117188
0.052,-22.546997070312,6.9617919921875,15.249877929688
0.0525,-19.624145507812,2.3973388671875,16.931518554688
0.053,-18.302856445312,-2.2872314453125,20.214721679688
0.0535,-15.900512695312,-6.5714111328125,22.056518554688
0.054,-12.977661132812,-11.576293945312,24.178588867188
0.0545,-9.0538330078125,-14.298950195312,22.937377929688
0.055,-4.0089111328125,-16.981567382812,20.615112304688
0.0555,0.7957763671875,-18.943481445312,17.892456054688
0.056,4.9598388671875,-22.106567382812,16.971557617188
0.0565,9.8045654296875,-23.467895507812,13.568237304688
0.057,13.207885742188,-24.228637695312,10.965698242188
0.0575,15.970581054688,-22.707153320312,6.7215576171875
0.058,18.252807617188,-20.304809570312,2.1971435546875
0.0585,20.935424804688,-18.663208007812,-2.2071533203125
0.059,22.617065429688,-16.741333007812,-5.8507080078125
0.0595,24.178588867188,-13.618286132812,-10.575317382812
0.06,24.338745117188,-9.6944580078125,-13.458129882812
0.0605,21.375854492188,-5.6505126953125,-15.980590820312
0.061,18.533081054688,-0.8057861328125,-17.982543945312
0.0615,17.892456054688,3.5584716796875,-21.626098632812
0.062,14.369018554688,8.2830810546875,-22.787231445312
0.0625,12.006713867188,12.327026367188,-24.428833007812
0.063,7.1219482421875,15.209838867188,-22.426879882812
0.0635,2.1971435546875,17.612182617188,-19.944458007812
0.064,-2.7677001953125,20.014526367188,-17.582153320312
0.0645,-6.6114501953125,22.777221679688,-16.461059570312
0.065,-11.416137695312,24.058471679688,-13.177856445312
0.0655,-14.419067382812,23.658081054688,-9.8546142578125
0.066,-16.941528320312,22.056518554688,-5.8907470703125
0.0665,-17.942504882812,19.453979492188,-0.8458251953125
0.067,-22.106567382812,18.252807617188,3.2381591796875
0.0675,-22.947387695312,15.049682617188,7.4022216796875
0.068,-24.709106445312,12.647338867188,11.446166992188
0.0685,-22.466918945312,8.9637451171875,14.409057617188
0.069,-20.705200195312,3.7987060546875,17.932495117188
0.0695,-18.142700195312,-1.1661376953125,18.973510742188
0.07,-17.221801757812,-5.5303955078125,22.416870117188
0.0705,-13.217895507812,-8.9737548828125,23.137573242188
0.071,-10.455200195312,-13.818481445312,23.858276367188
0.0715,-5.6104736328125,-16.140747070312,21.335815429688
0.072,-0.3253173828125,-18.623168945312,18.613159179688
0.0725,4.1990966796875,-21.225708007812,16.771362304688
0.073,8.6434326171875,-23.227661132812,14.449096679688
0.0735,12.447143554688,-24.629028320312,12.126831054688
0.074,15.650268554688,-22.747192382812,7.2020263671875
0.0745,17.532104492188,-21.305786132812,3.9588623046875
0.075,20.094604492188,-18.703247070312,-1.3262939453125
0.0755,22.857299804688,-17.662231445312,-3.8487548828125
0.076,24.338745117188,-13.818481445312,-9.2940673828125
0.0765,24.218627929688,-10.255004882812,-11.536254882812
0.077,21.576049804688,-6.4913330078125,-15.259887695312
0.0775,19.453979492188,-2.0870361328125,-17.582153320312
0.078,17.452026367188,2.3572998046875,-20.024536132812
0.0785,15.650268554688,7.1219482421875,-22.907348632812
0.079,12.447143554688,11.205932617188,-23.788208007812
0.0795,8.2830810546875,14.729370117188,-21.786254882812
0.08,4.1990966796875,16.411010742188,-20.705200195312
0.0805,-1.4464111328125,19.173706054688,-17.982543945312
0.081,-5.4503173828125,21.976440429688,-16.941528320312
0.0815,-8.9737548828125,23.217651367188,-13.458129882812
0.082,-13.017700195312,24.538940429688,-12.056762695312
0.0825,-16.060668945312,21.736206054688,-6.3712158203125
0.083,-18.062622070312,20.334838867188,-2.8878173828125
0.0835,-20.585083007812,18.212768554688,1.8367919921875
0.084,-23.147583007812,16.491088867188,6.1610107421875
0.0845,-23.107543945312,12.687377929688,9.8846435546875
0.085,-23.547973632812,9.6043701171875,13.488159179688
0.0855,-20.985473632812,5.4803466796875,15.129760742188
0.086,-18.743286132812,0.4354248046875,18.012573242188
0.0865,-17.381958007812,-3.6485595703125,20.735229492188
0.087,-14.379028320312,-8.8536376953125,22.857299804688
0.0875,-12.176879882812,-12.096801757812,23.858276367188
0.088,-6.4913330078125,-15.540161132812,21.616088867188
0.0885,-2.8878173828125,-17.061645507812,19.494018554688
0.089,2.6776123046875,-20.024536132812,17.011596679688
0.0895,6.8817138671875,-22.867309570312,15.810424804688
0.09,11.486206054688,-23.427856445312,11.966674804688
0.0905,14.208862304688,-24.148559570312,9.9647216796875
0.091,16.611206054688,-21.265747070312,4.8397216796875
0.0915,19.173706054688,-19.544067382812,0.5555419921875
0.092,21.375854492188,-17.982543945312,-3.2882080078125
0.0925,23.537963867188,-15.339965820312,-8.2130126953125
0.093,23.417846679688,-12.337036132812,-11.135864257812
0.0935,22.577026367188,-7.8526611328125,-14.899536132812
0.094,20.174682617188,-4.2891845703125,-16.100708007812
0.0945,18.052612304688,1.1561279296875,-19.343872070312
0.095,16.531127929688,5.3602294921875,-22.066528320312
0.0955,12.847534179688,10.485229492188,-23.467895507812
0.096,10.885620117188,13.287963867188,-24.308715820312
0.0965,4.7196044921875,16.170776367188,-21.025512695312
0.097,0.5955810546875,18.132690429688,-18.943481445312
0.0975,-4.1690673828125,20.935424804688,-17.181762695312
0.098,-7.6925048828125,23.738159179688,-15.179809570312
0.0985,-12.537231445312,23.858276367188,-11.896606445312
0.099,-15.740356445312,23.457885742188,-8.3331298828125
0.0995,-17.462036132812,20.815307617188,-4.0089111328125
0.1,-19.223754882812,18.893432617188,1.0760498046875
0.1005,-22.426879882812,17.251831054688,4.5994873046875
0.101,-24.068481445312,13.808471679688,9.7645263671875
0.1015,-23.948364257812,11.205932617188,12.327026367188
0.102,-21.946411132812,5.8807373046875,15.770385742188
0.1025,-19.584106445312,2.2371826171875,17.011596679688
0.103,-16.661254882812,-2.8878173828125,20.414916992188
0.1035,-15.660278320312,-6.4112548828125,22.937377929688
0.104,-12.056762695312,-12.056762695312,23.698120117188
0.1045,-9.0137939453125,-15.059692382812,23.578002929688
0.105,-3.3282470703125,-17.261840820312,20.054565429688
0.1055,1.6365966796875,-19.784301757812,17.812377929688
0.106,5.5203857421875,-22.146606445312,16.491088867188
0.1065,10.965698242188,-24.388793945312,13.408081054688
0.107,13.608276367188,-24.068481445312,10.485229492188
0.1075,17.051635742188,-22.747192382812,5.8006591796875
0.108,18.613159179688,-20.144653320312,1.7166748046875
0.1085,21.736206054688,-18.583129882812,-3.0880126953125
0.109,23.097534179688,-16.220825195312,-6.8917236328125
0.1095,24.218627929688,-11.536254882812,-11.496215820312
0.11,23.698120117188,-9.7344970703125,-14.138793945312
0.1105,20.975463867188,-4.4893798828125,-15.380004882812
0.111,18.613159179688,-0.3253173828125,-18.543090820312
0.1115,17.371948242188,4.1190185546875,-21.666137695312
0.112,14.208862304688,9.4442138671875,-23.788208007812
0.1125,10.925659179688,14.088745117188,-23.908325195312
0.113,6.7215576171875,15.930541992188,-22.787231445312
0.1135,1.3563232421875,17.652221679688,-19.544067382812
0.114,-3.5684814453125,20.855346679688,-17.622192382812
0.1145,-7.0919189453125,22.657104492188,-15.900512695312
0.115,-12.337036132812,24.659057617188,-12.857543945312
0.1155,-14.619262695312,23.698120117188,-9.6944580078125
0.116,-17.502075195312,21.896362304688,-5.0098876953125
0.1165,-19.303833007812,19.253784179688,-0.6456298828125
0.117,-22.186645507812,18.172729492188,3.5184326171875
0.1175,-23.227661132812,14.849487304688,7.9227294921875
0.118,-23.868286132812,11.806518554688,11.646362304688
0.1185,-22.827270507812,7.9627685546875,14.529174804688
0.119,-20.024536132812,3.1981201171875,16.691284179688
0.1195,-18.142700195312,-1.3262939453125,19.133666992188
0.12,-15.380004882812,-5.4503173828125,21.736206054688
0.1205,-13.458129882812,-10.775512695312,23.818237304688
0.121,-9.9346923828125,-13.658325195312,23.097534179688
0.1215,-5.3302001953125,-16.380981445312,21.255737304688
0.122,-0.3653564453125,-18.102661132812,18.172729492188
0.1225,4.1590576171875,-21.265747070312,16.931518554688
0.123,8.2830810546875,-22.587036132812,14.208862304688
0.1235,12.527221679688,-24.308715820312,11.806518554688
0.124,15.169799804688,-22.667114257812,7.6424560546875
0.1245,17.532104492188,-20.825317382812,3.4383544921875
0.125,19.694213867188,-18.543090820312,-1.0860595703125
0.1255,22.176635742188,-17.462036132812,-4.6495361328125
0.126,23.217651367188,-14.058715820312,-9.1739501953125
0.1265,23.177612304688,-10.895629882812,-12.377075195312
0.127,21.696166992188,-6.9317626953125,-14.939575195312
0.1275,18.773315429688,-2.0469970703125,-16.981567382812
0.128,17.612182617188,2.2371826171875,-20.024536132812
0.1285,15.089721679688,6.5614013671875,-21.906372070312
0.129,12.727416992188,11.165893554688,-24.068481445312
0.1295,8.1629638671875,14.008666992188,-22.506958007812
0.13,3.8787841796875,16.571166992188,-19.223754882812
0.1305,-0.0050048828125,18.693237304688,-17.702270507812
0.131,-5.2100830078125,22.016479492188,-17.101684570312
0.1315,-9.7745361328125,22.897338867188,-13.578247070312
0.132,-13.097778320312,24.018432617188,-11.496215820312
0.1325,-15.700317382812,22.056518554688,-6.9718017578125
0.133,-18.142700195312,19.974487304688,-2.5274658203125
0.1335,-20.625122070312,18.212768554688,1.9168701171875
0.134,-22.587036132812,16.170776367188,5.8807373046875
0.1345,-23.748168945312,13.127807617188,10.164916992188
0.135,-22.907348632812,9.0838623046875,13.448120117188
0.1355,-21.425903320312,5.5203857421875,15.490112304688
0.136,-18.503051757812,0.2752685546875,19.213745117188
0.1365,-17.742309570312,-3.9688720703125,21.415893554688
0.137,-13.978637695312,-8.7735595703125,22.296752929688
0.1375,-12.056762695312,-12.657348632812,24.258666992188
0.138,-6.5714111328125,-15.540161132812,21.696166992188
0.1385,-2.0870361328125,-17.862426757812,19.574096679688
0.139,3.1180419921875,-20.224731445312,16.931518554688
0.1395,7.3621826171875,-23.227661132812,15.690307617188
0.14,11.766479492188,-23.908325195312,12.166870117188
0.1405,15.049682617188,-23.908325195312,8.9237060546875
0.141,17.051635742188,-21.986450195312,4.9598388671875
0.1415,19.894409179688,-19.504028320312,-0.2852783203125
0.142,22.376831054688,-18.062622070312,-4.2891845703125
0.1425,23.618041992188,-14.779418945312,-8.8135986328125
0.143,24.659057617188,-12.537231445312,-12.256958007812
0.1435,22.577026367188,-7.1319580078125,-15.660278320312
0.144,20.775268554688,-3.5684814453125,-17.462036132812
0.1445,19.213745117188,1.9168701171875,-20.024536132812
0.145,16.771362304688,7.6824951171875,-23.427856445312
0.1455,12.327026367188,11.005737304688,-23.788208007812
0.146,9.9647216796875,14.689331054688,-24.789184570312
0.1465,4.4793701171875,17.091674804688,-21.666137695312
0.147,-0.7657470703125,19.774291992188,-19.263793945312
0.1475,-5.3302001953125,22.056518554688,-17.061645507812
0.148,-10.295043945312,24.538940429688,-14.699340820312
0.1485,-13.618286132812,25.019409179688,-11.976684570312
0.149,-17.301879882812,23.578002929688,-6.9718017578125
0.1495,-18.743286132812,21.616088867188,-3.5684814453125
0.15,-21.706176757812,19.053588867188,2.0369873046875
0.1505,-23.988403320312,17.251831054688,6.1610107421875
0.151,-23.067504882812,13.087768554688,10.845581054688
0.1515,-25.229614257812,10.925659179688,13.928588867188
0.152,-22.186645507812,5.1600341796875,16.731323242188
0.1525,-20.224731445312,0.9959716796875,18.893432617188
0.153,-17.822387695312,-3.9688720703125,21.415893554688
0.1535,-15.660278320312,-9.1739501953125,25.619995117188
0.154,-11.736450195312,-12.977661132812,24.378784179688
0.1545,-7.8526611328125,-16.541137695312,23.978393554688
0.155,-3.0079345703125,-18.142700195312,20.775268554688
0.1555,2.7977294921875,-21.145629882812,18.172729492188
0.156,6.7615966796875,-23.347778320312,16.451049804688
0.1565,12.246948242188,-25.029418945312,12.767456054688
0.157,14.769409179688,-25.349731445312,10.685424804688
0.1575,18.412963867188,-22.947387695312,4.7596435546875
0.158,19.974487304688,-20.945434570312,1.1160888671875
0.1585,22.536987304688,-18.783325195312,-3.6485595703125
0.159,24.578979492188,-16.421020507812,-8.1729736328125
0.1595,24.418823242188,-12.296997070312,-12.136840820312
0.16,24.619018554688,-9.4141845703125,-15.420043945312
0.1605,21.295776367188,-4.2091064453125,-17.261840820312
0.161,19.133666992188,0.6756591796875,-20.064575195312
0.1615,17.291870117188,4.9598388671875,-22.466918945312
0.162,14.128784179688,10.605346679688,-24.869262695312
0.1625,11.125854492188,13.568237304688,-24.749145507812
0.163,5.7606201171875,17.211791992188,-23.027465820312
0.1635,1.4764404296875,18.653198242188,-20.224731445312
0.164,-4.1690673828125,21.896362304688,-18.022583007812
0.1645,-8.0128173828125,23.818237304688,-16.180786132812
0.165,-13.137817382812,25.019409179688,-12.377075195312
0.1655,-15.740356445312,24.979370117188,-9.8946533203125
0.166,-18.583129882812,22.136596679688,-4.2891845703125
0.1665,-20.705200195312,20.014526367188,0.1151123046875
0.167,-22.947387695312,18.372924804688,3.9989013671875
0.1675,-24.869262695312,15.209838867188,9.1639404296875
0.168,-24.068481445312,12.807495117188,12.286987304688
0.1685,-23.828247070312,7.6024169921875,16.090698242188
0.169,-20.825317382812,2.9578857421875,17.452026367188
0.1695,-18.903442382812,-2.2872314453125,20.775268554688
0.17,-16.701293945312,-6.5313720703125,22.897338867188
0.1705,-13.217895507812,-12.136840820312,24.979370117188
0.171,-10.134887695312,-14.819458007812,24.498901367188
0.1715,-4.2091064453125,-18.102661132812,21.896362304688
0.172,0.4754638671875,-19.784301757812,19.053588867188
0.1725,5.3201904296875,-22.907348632812,17.411987304688
0.173,10.084838867188,-24.629028320312,14.529174804688
0.1735,14.208862304688,-25.309692382812,11.205932617188
0.174,17.131713867188,-24.428833007812,7.4422607421875
0.1745,19.534057617188,-21.666137695312,2.2772216796875
0.175,22.256713867188,-19.544067382812,-2.6075439453125
0.1755,23.978393554688,-17.662231445312,-6.2510986328125
0.176,25.660034179688,-14.138793945312,-11.576293945312
0.1765,24.939331054688,-10.415161132812,-14.579223632812
0.177,23.217651367188,-5.7706298828125,-17.662231445312
0.1775,19.974487304688,-0.9259033203125,-19.343872070312
0.178,18.613159179688,4.1590576171875,-22.947387695312
