wavelength,x,y,z
0.0,11.766479492188,10.285034179688,-21.946411132812
0.0005,8.3631591796875,13.848510742188,-22.106567382812
0.001,4.4793701171875,16.611206054688,-20.905395507812
0.0015,0.0350341796875,19.373901367188,-17.942504882812
0.002,-4.0889892578125,21.095581054688,-16.901489257812
0.0025,-9.6544189453125,22.456909179688,-11.536254882812
0.003,-12.977661132812,22.216674804688,-9.2940673828125
0.0035,-16.701293945312,22.416870117188,-5.9307861328125
0.004,-18.783325195312,21.255737304688,-2.7677001953125
0.0045,-21.425903320312,19.574096679688,1.5565185546875
0.005,-22.867309570312,17.932495117188,5.8807373046875
0.0055,-22.707153320312,12.166870117188,10.164916992188
0.006,-23.027465820312,9.2039794921875,13.368041992188
0.0065,-22.146606445312,5.4002685546875,16.250854492188
0.007,-20.905395507812,1.7967529296875,18.493041992188
0.0075,-18.943481445312,-2.4874267578125,20.535034179688
0.008,-15.099731445312,-7.8927001953125,22.016479492188
0.0085,-10.775512695312,-11.696411132812,21.375854492188
0.009,-7.5323486328125,-15.299926757812,21.576049804688
0.0095,-3.6885986328125,-17.502075195312,19.854370117188
0.01,0.9559326171875,-20.344848632812,18.252807617188
0.0105,4.9598388671875,-20.505004882812,15.730346679688
0.011,10.204956054688,-22.627075195312,11.406127929688
0.0115,13.287963867188,-22.627075195312,8.4832763671875
0.012,16.931518554688,-22.466918945312,4.8397216796875
0.0125,19.013549804688,-21.225708007812,1.5565185546875
0.013,21.255737304688,-19.303833007812,-2.6075439453125
0.0135,22.536987304688,-15.980590820312,-7.2120361328125
0.014,21.936401367188,-10.255004882812,-11.015747070312
0.0145,22.456909179688,-7.6925048828125,-14.058715820312
0.015,21.215698242188,-3.8487548828125,-16.501098632812
0.0155,20.094604492188,-1.2061767578125,-17.942504882812
0.016,17.612182617188,2.9979248046875,-20.665161132812
0.0165,13.488159179688,8.4832763671875,-21.946411132812
0.017,9.5242919921875,11.806518554688,-21.225708007812
0.0175,6.0408935546875,16.651245117188,-21.305786132812
0.018,2.1971435546875,17.331909179688,-19.263793945312
0.0185,-2.3673095703125,20.174682617188,-17.702270507812
0.019,-6.9317626953125,21.335815429688,-14.338989257812
0.0195,-11.576293945312,21.736206054688,-8.9737548828125
0.02,-14.619262695312,22.056518554688,-7.6524658203125
0.0205,-17.742309570312,21.255737304688,-3.8087158203125
0.021,-19.944458007812,19.894409179688,-0.3253173828125
0.0215,-21.666137695312,17.772338867188,3.5584716796875
0.022,-22.787231445312,13.968627929688,8.4432373046875
0.0225,-22.066528320312,9.7244873046875,11.886596679688
0.023,-22.587036132812,7.1619873046875,14.969604492188
0.0235,-20.745239257812,3.1180419921875,17.011596679688
0.024,-19.704223632812,-1.0059814453125,19.894409179688
0.0245,-16.380981445312,-5.4102783203125,20.775268554688
0.025,-12.296997070312,-10.575317382812,21.736206054688
0.0255,-8.7335205078125,-13.618286132812,21.135620117188
0.026,-4.8096923828125,-16.941528320312,21.776245117188
0.0265,-0.8057861328125,-18.943481445312,18.533081054688
0.027,3.4383544921875,-21.425903320312,16.891479492188
0.0275,8.4031982421875,-22.306762695312,12.927612304688
0.028,12.447143554688,-22.306762695312,9.0037841796875
0.0285,15.610229492188,-22.907348632812,6.5213623046875
0.029,18.412963867188,-21.465942382812,2.3973388671875
0.0295,20.815307617188,-19.944458007812,-1.5665283203125
0.03,23.057495117188,-17.181762695312,-5.2501220703125
0.0305,22.617065429688,-13.177856445312,-10.014770507812
0.031,21.896362304688,-9.3341064453125,-13.097778320312
0.0315,22.096557617188,-5.1300048828125,-16.100708007812
0.032,20.134643554688,-2.2872314453125,-18.142700195312
0.0325,18.893432617188,1.8367919921875,-20.865356445312
0.033,14.649291992188,6.5213623046875,-21.225708007812
0.0335,10.525268554688,11.165893554688,-21.666137695312
0.034,7.4022216796875,14.208862304688,-21.425903320312
0.0345,2.8778076171875,17.291870117188,-19.904418945312
0.035,-0.0050048828125,19.373901367188,-17.982543945312
0.0355,-5.4903564453125,21.255737304688,-15.700317382812
0.036,-10.415161132812,22.016479492188,-11.616333007812
0.0365,-13.978637695312,21.656127929688,-7.7725830078125
0.037,-16.981567382812,22.096557617188,-5.4102783203125
0.0375,-19.504028320312,20.334838867188,-1.1661376953125
0.038,-21.826293945312,18.533081054688,2.9578857421875
0.0385,-22.186645507812,15.049682617188,6.7615966796875
0.039,-22.827270507812,11.205932617188,11.245971679688
0.0395,-22.186645507812,8.9637451171875,15.369995117188
0.04,-21.746215820312,4.1990966796875,16.971557617188
0.0405,-19.784301757812,0.0350341796875,18.973510742188
0.041,-16.661254882812,-4.2891845703125,21.255737304688
0.0415,-13.458129882812,-9.0538330078125,21.415893554688
0.042,-9.3741455078125,-13.097778320312,21.295776367188
0.0425,-6.5714111328125,-15.900512695312,21.175659179688
0.043,-1.6866455078125,-18.663208007812,19.133666992188
0.0435,2.4774169921875,-20.865356445312,17.291870117188
0.044,7.0018310546875,-22.106567382812,15.369995117188
0.0445,11.366088867188,-22.907348632812,10.605346679688
0.045,14.769409179688,-22.386840820312,6.7615966796875
0.0455,17.612182617188,-22.266723632812,3.9588623046875
0.046,20.054565429688,-20.384887695312,-0.3253173828125
0.0465,22.256713867188,-18.342895507812,-4.5294189453125
0.047,21.976440429688,-14.178833007812,-8.3731689453125
0.0475,22.536987304688,-10.655395507812,-12.417114257812
0.048,22.056518554688,-7.6124267578125,-15.019653320312
0.0485,20.935424804688,-3.6085205078125,-17.782348632812
0.049,19.053588867188,0.5955810546875,-19.864379882812
0.0495,16.250854492188,5.2401123046875,-21.546020507812
0.05,12.046752929688,9.8446044921875,-20.505004882812
0.0505,7.9227294921875,13.608276367188,-21.305786132812
0.051,4.9998779296875,16.130737304688,-20.825317382812
0.0515,0.0350341796875,18.893432617188,-18.663208007812
0.052,-4.2491455078125,21.095581054688,-16.741333007812
0.0525,-9.0538330078125,21.495971679688,-12.417114257812
0.053,-11.536254882812,22.296752929688,-9.6143798828125
0.0535,-16.180786132812,21.856323242188,-5.9307861328125
0.054,-18.663208007812,21.135620117188,-2.7677001953125
0.0545,-20.945434570312,19.053588867188,1.5965576171875
0.055,-22.947387695312,16.571166992188,6.0408935546875
0.0555,-22.346801757812,12.166870117188,9.7645263671875
0.056,-22.707153320312,8.8035888671875,13.448120117188
0.0565,-22.186645507812,5.8006591796875,15.850463867188
0.057,-20.625122070312,1.3162841796875,18.613159179688
0.0575,-18.623168945312,-2.8878173828125,20.615112304688
0.058,-14.779418945312,-7.7725830078125,21.536010742188
0.0585,-11.095825195312,-11.816528320312,23.057495117188
0.059,-7.0518798828125,-15.339965820312,21.175659179688
0.0595,-3.6885986328125,-17.582153320312,19.974487304688
0.06,1.2362060546875,-20.224731445312,19.213745117188
0.0605,5.8006591796875,-22.466918945312,15.610229492188
0.061,10.285034179688,-22.266723632812,11.005737304688
0.0615,13.768432617188,-22.987426757812,8.4031982421875
0.062,16.931518554688,-22.466918945312,4.7996826171875
0.0625,19.494018554688,-21.305786132812,1.1961669921875
0.063,21.455932617188,-19.023559570312,-3.1280517578125
0.0635,22.897338867188,-15.740356445312,-7.7725830078125
0.064,22.296752929688,-11.576293945312,-11.255981445312
0.0645,22.416870117188,-8.3331298828125,-14.699340820312
0.065,21.576049804688,-5.4102783203125,-15.380004882812
0.0655,19.854370117188,-0.6456298828125,-19.584106445312
0.066,17.572143554688,5.1199951171875,-21.465942382812
0.0665,12.967651367188,8.8836669921875,-21.746215820312
0.067,9.6444091796875,12.447143554688,-21.866333007812
0.0675,5.6405029296875,15.690307617188,-21.105590820312
0.068,1.7967529296875,19.213745117188,-19.423950195312
0.0685,-2.7276611328125,20.294799804688,-17.421997070312
0.069,-8.0128173828125,22.296752929688,-14.218872070312
0.0695,-11.856567382812,23.057495117188,-9.9747314453125
0.07,-15.420043945312,22.416870117188,-7.2120361328125
0.0705,-17.982543945312,21.455932617188,-3.7286376953125
0.071,-20.625122070312,20.134643554688,0.2752685546875
0.0715,-22.266723632812,17.532104492188,4.3992919921875
0.072,-23.147583007812,13.568237304688,9.2039794921875
0.0725,-22.787231445312,9.9246826171875,12.447143554688
0.073,-22.627075195312,6.4813232421875,15.570190429688
0.0735,-21.265747070312,3.1180419921875,17.492065429688
0.074,-19.584106445312,-1.4464111328125,20.214721679688
0.0745,-16.421020507812,-5.1300048828125,21.896362304688
0.075,-11.816528320312,-11.015747070312,21.736206054688
0.0755,-8.6934814453125,-14.379028320312,21.896362304688
0.076,-4.6094970703125,-17.261840820312,20.615112304688
0.0765,-0.2852783203125,-19.824340820312,18.893432617188
0.077,5.1199951171875,-21.706176757812,16.771362304688
0.0775,9.5643310546875,-23.267700195312,12.767456054688
0.078,14.088745117188,-22.787231445312,9.0838623046875
0.0785,16.611206054688,-23.227661132812,5.8807373046875
0.079,18.893432617188,-20.505004882812,2.1971435546875
0.0795,21.576049804688,-20.144653320312,-2.0870361328125
0.08,22.817260742188,-17.181762695312,-6.2911376953125
0.0805,24.338745117188,-12.777465820312,-10.895629882812
0.081,22.977416992188,-9.6944580078125,-13.818481445312
0.0815,22.336791992188,-5.9307861328125,-16.821411132812
0.082,20.695190429688,-2.0469970703125,-18.983520507812
0.0825,18.773315429688,2.3973388671875,-21.225708007812
0.083,14.849487304688,7.9627685546875,-22.707153320312
0.0835,10.164916992188,11.966674804688,-21.986450195312
0.084,7.1619873046875,16.651245117188,-22.266723632812
0.0845,2.6776123046875,17.852416992188,-20.224731445312
0.085,-1.9669189453125,20.615112304688,-18.463012695312
0.0855,-6.1710205078125,21.936401367188,-15.700317382812
0.086,-11.696411132812,24.338745117188,-11.336059570312
0.0865,-14.779418945312,22.496948242188,-7.9727783203125
0.087,-18.382934570312,22.577026367188,-4.4493408203125
0.0875,-20.464965820312,20.775268554688,-0.6456298828125
0.088,-22.747192382812,18.773315429688,3.6385498046875
0.0885,-23.708129882812,15.209838867188,8.0828857421875
0.089,-23.427856445312,10.525268554688,12.407104492188
0.0895,-23.507934570312,7.8826904296875,15.169799804688
0.09,-22.066528320312,3.5584716796875,19.213745117188
0.0905,-20.464965820312,-0.6456298828125,20.334838867188
0.091,-17.902465820312,-4.9298095703125,21.896362304688
0.0915,-13.738403320312,-10.455200195312,23.097534179688
0.092,-9.1339111328125,-13.978637695312,21.896362304688
0.0925,-5.9307861328125,-17.341918945312,22.056518554688
0.093,-1.2462158203125,-19.544067382812,19.494018554688
0.0935,3.3182373046875,-22.226684570312,17.852416992188
0.094,7.8826904296875,-23.107543945312,14.208862304688
0.0945,12.767456054688,-23.868286132812,10.204956054688
0.095,15.850463867188,-23.588012695312,7.0018310546875
0.0955,20.494995117188,-22.827270507812,2.9178466796875
0.096,21.375854492188,-20.905395507812,-1.1260986328125
0.0965,23.177612304688,-18.583129882812,-5.2901611328125
0.097,23.818237304688,-14.619262695312,-9.8546142578125
0.0975,23.217651367188,-10.054809570312,-13.738403320312
0.098,23.417846679688,-7.4923095703125,-16.421020507812
0.0985,21.415893554688,-2.8878173828125,-18.903442382812
0.099,19.854370117188,1.5164794921875,-21.505981445312
0.0995,16.290893554688,6.0008544921875,-22.266723632812
0.1,12.166870117188,11.326049804688,-23.387817382812
0.1005,7.8026123046875,14.609252929688,-22.146606445312
0.101,4.0789794921875,17.852416992188,-21.626098632812
0.1015,-0.7257080078125,19.934448242188,-19.023559570312
0.102,-5.1700439453125,22.496948242188,-17.181762695312
0.1025,-10.174926757812,22.777221679688,-12.617309570312
0.103,-14.379028320312,23.177612304688,-8.9337158203125
0.1035,-17.381958007812,23.177612304688,-6.0909423828125
0.104,-20.264770507812,21.736206054688,-1.7667236328125
0.1045,-22.426879882812,19.574096679688,2.5174560546875
0.105,-23.748168945312,16.691284179688,6.6815185546875
0.1055,-24.268676757812,12.607299804688,11.286010742188
0.106,-23.427856445312,8.2430419921875,14.729370117188
0.1065,-23.467895507812,5.4403076171875,17.452026367188
0.107,-21.105590820312,0.6356201171875,19.854370117188
0.1075,-19.504028320312,-2.5675048828125,22.416870117188
0.108,-14.819458007812,-8.6934814453125,22.456909179688
0.1085,-11.015747070312,-13.418090820312,23.257690429688
0.109,-7.0118408203125,-16.541137695312,22.256713867188
0.1095,-2.7276611328125,-19.423950195312,20.895385742188
0.11,2.0369873046875,-21.546020507812,18.372924804688
0.1105,6.7215576171875,-23.868286132812,16.010620117188
0.111,11.566284179688,-23.908325195312,11.406127929688
0.1115,15.410034179688,-23.908325195312,8.9637451171875
0.112,18.372924804688,-23.828247070312,4.7996826171875
0.1125,21.215698242188,-22.066528320312,0.1551513671875
0.113,23.337768554688,-19.664184570312,-4.3692626953125
0.1135,23.938354492188,-15.780395507812,-8.6934814453125
0.114,24.378784179688,-12.016723632812,-12.977661132812
0.1145,23.337768554688,-7.8526611328125,-16.020629882812
0.115,22.897338867188,-4.7296142578125,-18.583129882812
0.1155,20.454956054688,0.3553466796875,-20.985473632812
0.116,18.332885742188,5.0399169921875,-23.387817382812
0.1165,13.127807617188,10.044799804688,-21.786254882812
0.117,9.3240966796875,14.288940429688,-23.387817382812
0.1175,5.6004638671875,17.131713867188,-22.466918945312
0.118,0.7557373046875,20.014526367188,-20.464965820312
0.1185,-4.0089111328125,22.016479492188,-17.902465820312
0.119,-9.2940673828125,23.738159179688,-14.379028320312
0.1195,-13.498168945312,23.738159179688,-10.335083007812
0.12,-17.261840820312,23.497924804688,-5.1300048828125
0.1205,-19.664184570312,22.897338867188,-3.5684814453125
0.121,-22.466918945312,20.815307617188,1.3162841796875
0.1215,-24.388793945312,18.172729492188,5.9207763671875
0.122,-23.067504882812,13.568237304688,10.405151367188
0.1225,-24.869262695312,10.084838867188,14.328979492188
0.123,-23.708129882812,6.0408935546875,17.131713867188
0.1235,-22.546997070312,2.3572998046875,19.574096679688
0.124,-20.064575195312,-2.6075439453125,23.057495117188
0.1245,-16.981567382812,-7.8526611328125,23.778198242188
0.125,-11.976684570312,-12.337036132812,23.177612304688
0.1255,-8.1729736328125,-16.300903320312,23.177612304688
0.126,-4.4893798828125,-18.623168945312,21.856323242188
0.1265,0.7557373046875,-21.666137695312,19.694213867188
0.127,5.2801513671875,-23.427856445312,17.011596679688
0.1275,10.845581054688,-24.508911132812,12.647338867188
0.128,14.449096679688,-24.669067382812,9.3240966796875
0.1285,18.212768554688,-24.228637695312,5.2401123046875
0.129,20.414916992188,-21.786254882812,1.9569091796875
0.1295,23.017456054688,-20.785278320312,-2.9278564453125
0.13,24.699096679688,-17.582153320312,-7.7725830078125
0.1305,24.018432617188,-12.617309570312,-11.976684570312
0.131,24.578979492188,-9.6143798828125,-15.460083007812
0.1315,23.217651367188,-5.6905517578125,-17.982543945312
0.132,23.057495117188,-1.4864501953125,-20.585083007812
0.1325,19.093627929688,3.3182373046875,-22.466918945312
0.133,15.049682617188,9.0037841796875,-23.988403320312
0.1335,10.445190429688,12.967651367188,-23.227661132812
0.134,6.6414794921875,16.771362304688,-21.786254882812
0.1345,2.7176513671875,18.693237304688,-21.145629882812
0.135,-2.4473876953125,21.736206054688,-19.103637695312
0.1355,-7.2921142578125,23.337768554688,-15.900512695312
0.136,-12.577270507812,23.698120117188,-11.055786132812
0.1365,-15.740356445312,23.898315429688,-8.3331298828125
0.137,-19.183715820312,23.097534179688,-4.2491455078125
0.1375,-21.345825195312,21.696166992188,-0.6456298828125
0.138,-23.467895507812,20.494995117188,3.9588623046875
0.1385,-25.029418945312,15.570190429688,9.0838623046875
0.139,-24.068481445312,10.605346679688,13.007690429688
0.1395,-24.588989257812,7.8026123046875,16.290893554688
0.14,-22.787231445312,3.7987060546875,18.412963867188
0.1405,-21.345825195312,-0.7257080078125,21.255737304688
0.141,-18.142700195312,-5.5303955078125,22.737182617188
0.1415,-13.658325195312,-11.215942382812,23.778198242188
0.142,-9.6544189453125,-14.619262695312,24.338745117188
0.1425,-5.6505126953125,-18.262817382812,22.577026367188
0.143,-1.4864501953125,-20.064575195312,20.334838867188
0.1435,3.3582763671875,-22.827270507812,18.292846679688
0.144,8.7635498046875,-23.067504882812,14.569213867188
0.1445,13.408081054688,-23.067504882812,9.9246826171875
0.145,17.932495117188,-24.829223632812,7.3221435546875
0.1455,19.774291992188,-23.347778320312,2.8778076171875
0.146,22.216674804688,-20.505004882812,-1.1661376953125
0.1465,23.818237304688,-18.943481445312,-5.4903564453125
0.147,25.019409179688,-14.779418945312,-10.855590820312
0.1475,24.018432617188,-8.9737548828125,-14.258911132812
0.148,25.619995117188,-7.3321533203125,-17.542114257812
0.1485,22.096557617188,-3.0880126953125,-19.383911132812
0.149,20.615112304688,1.5965576171875,-22.386840820312
0.1495,16.611206054688,6.8416748046875,-23.347778320312
0.15,11.926635742188,12.286987304688,-24.068481445312
0.1505,8.3231201171875,15.450073242188,-23.467895507812
0.151,3.7987060546875,18.853393554688,-22.266723632812
0.1515,-0.8057861328125,20.895385742188,-19.864379882812
0.152,-5.3302001953125,23.257690429688,-17.662231445312
0.1525,-11.175903320312,24.298706054688,-13.097778320312
0.153,-15.259887695312,23.818237304688,-8.6934814453125
0.1535,-18.583129882812,24.458862304688,-6.1309814453125
0.154,-21.225708007812,22.416870117188,-1.4464111328125
0.1545,-23.708129882812,20.454956054688,2.9178466796875
0.155,-24.669067382812,17.011596679688,7.2821044921875
0.1555,-25.589965820312,12.607299804688,12.567260742188
0.156,-24.548950195312,8.4432373046875,15.650268554688
0.1565,-24.388793945312,4.9598388671875,18.893432617188
0.157,-21.826293945312,0.4354248046875,20.735229492188
0.1575,-20.144653320312,-4.2091064453125,23.417846679688
0.158,-15.219848632812,-9.6544189453125,23.818237304688
0.1585,-10.575317382812,-14.499145507812,23.898315429688
0.159,-7.4122314453125,-17.462036132812,23.578002929688
0.1595,-2.2872314453125,-20.464965820312,21.455932617188
0.16,2.4373779296875,-22.747192382812,18.893432617188
0.1605,7.0819091796875,-24.388793945312,16.170776367188
0.161,12.607299804688,-25.349731445312,11.686401367188
0.1615,16.290893554688,-24.508911132812,7.4022216796875
0.162,19.534057617188,-24.789184570312,4.5194091796875
0.1625,21.976440429688,-22.466918945312,-0.2052001953125
0.163,25.619995117188,-20.264770507812,-4.6895751953125
0.1635,24.458862304688,-16.060668945312,-9.0137939453125
0.164,25.099487304688,-11.776489257812,-13.858520507812
0.1645,24.258666992188,-8.1729736328125,-16.581176757812
0.165,23.377807617188,-4.2091064453125,-19.544067382812
0.1655,20.855346679688,0.4754638671875,-21.505981445312
0.166,18.613159179688,5.0799560546875,-23.668090820312
0.1665,13.568237304688,10.485229492188,-23.908325195312
0.167,8.8836669921875,14.769409179688,-23.427856445312
0.1675,5.9608154296875,17.612182617188,-23.227661132812
0.168,0.5555419921875,20.134643554688,-20.585083007812
0.1685,-3.9688720703125,22.416870117188,-18.302856445312
0.169,-7.6925048828125,23.417846679688,-14.499145507812
0.1695,-13.738403320312,25.619995117188,-10.615356445312
0.17,-17.181762695312,23.537963867188,-6.5313720703125
0.1705,-19.984497070312,23.257690429688,-3.5284423828125
0.171,-22.266723632812,20.855346679688,1.1160888671875
0.1715,-23.067504882812,18.493041992188,5.5604248046875
0.172,-24.148559570312,13.808471679688,9.9647216796875
0.1725,-24.629028320312,9.8446044921875,14.328979492188
0.173,-24.068481445312,6.7215576171875,16.811401367188
0.1735,-22.506958007812,2.3572998046875,19.494018554688
0.174,-20.224731445312,-2.0870361328125,21.495971679688
0.1745,-16.981567382812,-7.0518798828125,23.017456054688
0.175,-12.537231445312,-12.016723632812,23.457885742188
0.1755,-8.0128173828125,-15.900512695312,22.697143554688
0.176,-5.0899658203125,-18.503051757812,22.176635742188
0.1765,0.2752685546875,-21.105590820312,19.494018554688
0.177,4.6795654296875,-23.227661132812,17.532104492188
0.1775,9.9246826171875,-23.628051757812,12.687377929688
0.178,14.008666992188,-24.508911132812,9.6043701171875
