wavelength,x,y,z
0.0,16.651245117188,8.2830810546875,-24.909301757812
0.0005,12.367065429688,13.247924804688,-25.670043945312
0.001,8.8035888671875,16.330932617188,-25.229614257812
0.0015,3.6385498046875,19.854370117188,-23.628051757812
0.002,-0.9259033203125,21.936401367188,-21.265747070312
0.0025,-5.4903564453125,24.138549804688,-18.903442382812
0.003,-11.015747070312,25.379760742188,-14.739379882812
0.0035,-15.019653320312,24.498901367188,-9.9346923828125
0.004,-18.222778320312,24.699096679688,-7.0118408203125
0.0045,-21.105590820312,22.456909179688,-1.9268798828125
0.005,-23.547973632812,20.535034179688,2.5975341796875
0.0055,-24.188598632812,16.971557617188,6.8817138671875
0.006,-25.229614257812,12.967651367188,12.006713867188
0.0065,-24.188598632812,8.7635498046875,15.209838867188
0.007,-23.668090820312,4.7596435546875,18.733276367188
0.0075,-21.425903320312,0.4354248046875,20.815307617188
0.008,-19.584106445312,-4.4093017578125,23.738159179688
0.0085,-15.339965820312,-9.4542236328125,24.498901367188
0.009,-10.935668945312,-13.818481445312,24.538940429688
0.0095,-7.9327392578125,-16.701293945312,24.338745117188
0.01,-2.4073486328125,-19.824340820312,22.056518554688
0.0105,1.9569091796875,-21.946411132812,20.014526367188
0.011,6.4412841796875,-23.547973632812,17.171752929688
0.0115,11.606323242188,-24.749145507812,13.287963867188
0.012,15.169799804688,-23.668090820312,8.6834716796875
0.0125,18.412963867188,-23.708129882812,5.5604248046875
0.013,20.895385742188,-21.465942382812,0.8358154296875
0.0135,23.337768554688,-19.504028320312,-3.6885986328125
0.014,23.578002929688,-15.660278320312,-7.8526611328125
0.0145,24.298706054688,-11.776489257812,-12.497192382812
0.015,23.578002929688,-8.2930908203125,-15.380004882812
0.0155,22.496948242188,-3.7686767578125,-18.823364257812
0.016,20.575073242188,0.3553466796875,-20.985473632812
0.0165,18.132690429688,5.2401123046875,-23.507934570312
0.017,14.168823242188,10.004760742188,-24.308715820312
0.0175,9.6844482421875,14.048706054688,-23.828247070312
0.018,6.9217529296875,16.891479492188,-23.828247070312
0.0185,1.4364013671875,19.814331054688,-21.305786132812
0.019,-2.8477783203125,22.176635742188,-19.544067382812
0.0195,-7.6124267578125,23.177612304688,-15.860473632812
0.02,-12.256958007812,24.338745117188,-12.457153320312
0.0205,-15.620239257812,23.337768554688,-8.1729736328125
0.021,-18.823364257812,22.897338867188,-4.5694580078125
0.0215,-20.985473632812,20.695190429688,-0.2052001953125
0.022,-23.387817382812,18.332885742188,4.6395263671875
0.0225,-23.307739257812,14.128784179688,8.8436279296875
0.023,-23.748168945312,10.244995117188,13.247924804688
0.0235,-23.347778320312,7.1619873046875,15.970581054688
0.024,-21.746215820312,2.2371826171875,19.373901367188
0.0245,-19.864379882812,-2.0469970703125,21.656127929688
0.025,-16.621215820312,-7.0919189453125,23.457885742188
0.0255,-13.097778320312,-11.456176757812,24.218627929688
0.026,-8.4132080078125,-15.219848632812,23.377807617188
0.0265,-5.1300048828125,-17.862426757812,22.777221679688
0.027,0.3153076171875,-20.625122070312,20.254760742188
0.0275,4.8797607421875,-23.107543945312,18.252807617188
0.028,9.6444091796875,-23.347778320312,13.808471679688
0.0285,13.728393554688,-24.188598632812,10.645385742188
0.029,16.971557617188,-23.187622070312,6.5213623046875
0.0295,20.014526367188,-22.106567382812,2.3172607421875
0.03,21.936401367188,-19.784301757812,-2.0069580078125
0.0305,23.978393554688,-16.941528320312,-6.8917236328125
0.031,23.578002929688,-12.697387695312,-10.855590820312
0.0315,23.578002929688,-8.8135986328125,-14.819458007812
0.032,22.897338867188,-5.6505126953125,-17.301879882812
0.0325,20.935424804688,-0.5255126953125,-20.585083007812
0.033,18.733276367188,3.9989013671875,-22.827270507812
0.0335,14.689331054688,9.0438232421875,-23.828247070312
0.034,11.526245117188,12.887573242188,-24.468872070312
0.0345,6.9217529296875,16.370971679688,-23.307739257812
0.035,3.1580810546875,18.893432617188,-22.066528320312
0.0355,-1.7667236328125,21.295776367188,-19.704223632812
0.036,-6.7315673828125,23.698120117188,-17.221801757812
0.0365,-11.135864257812,23.337768554688,-12.537231445312
0.037,-14.859497070312,23.858276367188,-9.4141845703125
0.0375,-17.662231445312,22.777221679688,-5.6104736328125
0.038,-20.545043945312,21.295776367188,-1.2061767578125
0.0385,-22.146606445312,18.653198242188,3.1180419921875
0.039,-23.588012695312,15.249877929688,8.0028076171875
0.0395,-23.347778320312,11.406127929688,11.686401367188
0.04,-22.947387695312,7.4022216796875,15.369995117188
0.0405,-22.066528320312,4.2391357421875,17.572143554688
0.041,-20.104614257812,-0.6856689453125,20.575073242188
0.0415,-17.622192382812,-5.4903564453125,22.817260742188
0.042,-13.297973632812,-9.9747314453125,23.057495117188
0.0425,-10.375122070312,-13.458129882812,23.618041992188
0.043,-6.0509033203125,-16.501098632812,22.296752929688
0.0435,-1.7667236328125,-19.063598632812,20.695190429688
0.044,2.4373779296875,-20.985473632812,18.533081054688
0.0445,7.7225341796875,-23.107543945312,15.410034179688
0.045,11.406127929688,-22.546997070312,11.245971679688
0.0455,15.129760742188,-22.867309570312,7.8826904296875
0.046,17.492065429688,-21.826293945312,4.5594482421875
0.0465,20.254760742188,-20.144653320312,0.1151123046875
0.047,21.776245117188,-17.542114257812,-4.1290283203125
0.0475,22.456909179688,-13.818481445312,-8.5733642578125
0.048,22.697143554688,-10.735473632812,-11.936645507812
0.0485,21.936401367188,-6.7716064453125,-15.219848632812
0.049,20.895385742188,-3.4884033203125,-17.582153320312
0.0495,19.093627929688,0.9559326171875,-20.184692382812
0.05,16.250854492188,6.0809326171875,-22.426879882812
0.0505,12.166870117188,9.9647216796875,-22.146606445312
0.051,9.3240966796875,13.448120117188,-22.827270507812
0.0515,5.4803466796875,15.930541992188,-21.465942382812
0.052,1.0360107421875,18.733276367188,-19.864379882812
0.0525,-2.8878173828125,20.494995117188,-17.782348632812
0.053,-8.1329345703125,22.176635742188,-14.338989257812
0.0535,-11.376098632812,21.936401367188,-10.935668945312
0.054,-14.979614257812,21.936401367188,-7.3721923828125
0.0545,-17.101684570312,20.895385742188,-4.3292236328125
0.055,-19.544067382812,19.213745117188,0.0350341796875
0.0555,-21.185668945312,16.451049804688,4.4393310546875
0.056,-21.345825195312,12.487182617188,8.5633544921875
0.0565,-22.066528320312,9.8846435546875,11.926635742188
0.057,-21.105590820312,6.0008544921875,14.849487304688
0.0575,-20.104614257812,2.3172607421875,17.572143554688
0.058,-18.262817382812,-1.7266845703125,19.774291992188
0.0585,-15.179809570312,-6.9317626953125,21.936401367188
0.059,-11.296020507812,-10.415161132812,21.536010742188
0.0595,-8.2130126953125,-13.938598632812,21.936401367188
0.06,-4.4093017578125,-16.140747070312,20.334838867188
0.0605,0.0350341796875,-19.023559570312,18.933471679688
0.061,4.1590576171875,-20.545043945312,16.370971679688
0.0615,9.0037841796875,-21.706176757812,12.687377929688
0.062,12.206909179688,-21.786254882812,9.7645263671875
0.0625,15.650268554688,-21.305786132812,5.9207763671875
0.063,17.852416992188,-20.144653320312,2.5574951171875
0.0635,19.934448242188,-18.262817382812,-1.5264892578125
0.064,21.495971679688,-15.299926757812,-6.1309814453125
0.0645,21.175659179688,-11.255981445312,-9.9346923828125
0.065,21.856323242188,-8.7335205078125,-13.217895507812
0.0655,20.454956054688,-4.7296142578125,-15.940551757812
0.066,19.453979492188,-0.7657470703125,-18.823364257812
0.0665,16.971557617188,3.5584716796875,-20.545043945312
0.067,13.688354492188,8.6033935546875,-22.266723632812
0.0675,10.004760742188,11.766479492188,-21.786254882812
0.068,6.4813232421875,15.209838867188,-21.746215820312
0.0685,2.5975341796875,17.291870117188,-19.904418945312
0.069,-1.6866455078125,19.974487304688,-18.503051757812
0.0695,-6.3311767578125,21.295776367188,-15.259887695312
0.07,-10.695434570312,21.736206054688,-11.416137695312
0.0705,-13.738403320312,22.096557617188,-8.8135986328125
0.071,-16.861450195312,20.935424804688,-4.5294189453125
0.0715,-19.063598632812,19.534057617188,-0.9659423828125
0.072,-20.625122070312,17.171752929688,3.0780029296875
0.0725,-21.986450195312,13.808471679688,7.8426513671875
0.073,-21.385864257812,9.7645263671875,11.366088867188
0.0735,-21.826293945312,7.0418701171875,14.529174804688
0.074,-20.064575195312,2.9178466796875,16.971557617188
0.0745,-18.943481445312,-1.2862548828125,20.014526367188
0.075,-15.660278320312,-5.6905517578125,21.135620117188
0.0755,-12.256958007812,-10.295043945312,22.376831054688
0.076,-8.9337158203125,-13.297973632812,21.976440429688
0.0765,-4.6495361328125,-16.541137695312,21.015502929688
0.077,-0.6456298828125,-18.543090820312,19.093627929688
0.0775,3.5985107421875,-20.945434570312,17.331909179688
0.078,8.3231201171875,-21.906372070312,13.648315429688
0.0785,12.206909179688,-21.786254882812,9.6844482421875
0.079,15.249877929688,-22.146606445312,7.1219482421875
0.0795,18.052612304688,-20.464965820312,2.6375732421875
0.08,20.254760742188,-18.903442382812,-1.2462158203125
0.0805,21.215698242188,-16.020629882812,-5.1300048828125
0.081,22.296752929688,-12.657348632812,-9.6944580078125
0.0815,21.536010742188,-8.8536376953125,-12.817504882812
0.082,21.455932617188,-5.4903564453125,-16.020629882812
0.0825,19.534057617188,-1.4063720703125,-18.262817382812
0.083,18.092651367188,3.0379638671875,-21.225708007812
0.0835,14.288940429688,7.4822998046875,-21.786254882812
0.084,10.765502929688,11.646362304688,-22.466918945312
0.0845,7.8426513671875,14.409057617188,-22.266723632812
0.085,3.1180419921875,17.452026367188,-20.585083007812
0.0855,-0.8858642578125,19.494018554688,-18.823364257812
0.086,-5.2501220703125,21.415893554688,-16.421020507812
0.0865,-9.7344970703125,22.296752929688,-12.937622070312
0.087,-13.257934570312,21.736206054688,-8.8936767578125
0.0875,-16.180786132812,21.856323242188,-6.1309814453125
0.088,-18.623168945312,19.934448242188,-1.8067626953125
0.0885,-20.945434570312,18.092651367188,2.4373779296875
0.089,-21.265747070312,14.569213867188,6.3612060546875
0.0895,-22.226684570312,11.245971679688,10.645385742188
0.09,-21.546020507812,7.8426513671875,13.488159179688
0.0905,-20.865356445312,3.9989013671875,16.691284179688
0.091,-19.183715820312,0.1551513671875,18.893432617188
0.0915,-17.101684570312,-4.6094970703125,21.495971679688
0.092,-13.378051757812,-8.8135986328125,21.976440429688
0.0925,-9.5343017578125,-12.657348632812,21.936401367188
0.093,-6.7315673828125,-15.259887695312,21.816284179688
0.0935,-1.7667236328125,-18.102661132812,19.694213867188
0.094,2.2772216796875,-20.264770507812,17.972534179688
0.0945,6.9217529296875,-21.465942382812,14.649291992188
0.095,10.885620117188,-22.426879882812,11.606323242188
0.0955,14.288940429688,-21.706176757812,7.5623779296875
0.096,17.171752929688,-21.345825195312,4.3592529296875
0.0965,19.413940429688,-19.463989257812,0.1951904296875
0.097,21.656127929688,-17.341918945312,-4.2891845703125
0.0975,21.495971679688,-13.418090820312,-8.1329345703125
0.098,22.216674804688,-10.094848632812,-12.136840820312
0.0985,21.656127929688,-6.9317626953125,-14.739379882812
0.099,20.374877929688,-2.5274658203125,-17.942504882812
0.0995,18.573120117188,1.4764404296875,-20.104614257812
0.1,15.650268554688,6.4412841796875,-22.106567382812
0.1005,12.246948242188,10.325073242188,-22.667114257812
0.101,8.2030029296875,14.048706054688,-22.266723632812
0.1015,5.2000732421875,16.411010742188,-21.706176757812
0.102,0.1551513671875,19.213745117188,-19.463989257812
0.1025,-4.1690673828125,21.495971679688,-17.582153320312
0.103,-8.8936767578125,21.976440429688,-13.418090820312
0.1035,-12.537231445312,22.817260742188,-10.655395507812
0.104,-15.860473632812,21.936401367188,-6.6114501953125
0.1045,-18.543090820312,21.015502929688,-2.9278564453125
0.105,-20.464965820312,18.853393554688,1.2762451171875
0.1055,-22.587036132812,16.130737304688,6.0809326171875
0.106,-22.146606445312,12.006713867188,9.8846435546875
0.1065,-22.546997070312,8.6434326171875,13.728393554688
0.107,-21.746215820312,5.4002685546875,16.170776367188
0.1075,-20.184692382812,0.6356201171875,19.413940429688
0.108,-18.022583007812,-3.6885986328125,21.495971679688
0.1085,-14.338989257812,-8.8135986328125,22.897338867188
0.109,-11.175903320312,-12.296997070312,23.217651367188
0.1095,-6.7315673828125,-15.860473632812,22.376831054688
0.11,-3.0079345703125,-18.182739257812,21.015502929688
0.1105,1.7967529296875,-20.745239257812,18.893432617188
0.111,6.7215576171875,-22.947387695312,16.250854492188
0.1115,11.085815429688,-22.747192382812,11.726440429688
0.112,14.689331054688,-23.347778320312,8.8436279296875
0.1125,17.772338867188,-22.186645507812,4.5994873046875
0.113,20.535034179688,-20.785278320312,0.3953857421875
0.1135,22.056518554688,-18.262817382812,-3.7686767578125
0.114,23.738159179688,-14.899536132812,-8.7735595703125
0.1145,23.017456054688,-10.855590820312,-12.176879882812
0.115,23.017456054688,-7.1719970703125,-15.940551757812
0.1155,21.576049804688,-3.5284423828125,-18.182739257812
0.116,19.894409179688,1.3563232421875,-21.345825195312
0.1165,16.931518554688,6.2010498046875,-23.187622070312
0.117,12.767456054688,11.005737304688,-23.828247070312
0.1175,9.7244873046875,14.248901367188,-24.028442382812
0.118,4.9998779296875,17.612182617188,-22.667114257812
0.1185,0.7557373046875,19.934448242188,-20.825317382812
0.119,-3.6885986328125,22.056518554688,-18.623168945312
0.1195,-9.0938720703125,24.058471679688,-15.339965820312
0.12,-12.977661132812,23.297729492188,-10.735473632812
0.1205,-16.541137695312,23.698120117188,-7.6925048828125
0.121,-19.223754882812,21.936401367188,-3.2481689453125
0.1215,-21.906372070312,20.214721679688,1.1561279296875
0.122,-22.907348632812,17.171752929688,5.4002685546875
0.1225,-24.068481445312,13.408081054688,10.405151367188
0.123,-23.427856445312,9.6444091796875,13.608276367188
0.1235,-22.987426757812,5.5604248046875,17.251831054688
0.124,-21.185668945312,1.6766357421875,19.373901367188
0.1245,-19.423950195312,-3.0479736328125,22.256713867188
0.125,-15.860473632812,-8.0928955078125,23.778198242188
0.1255,-11.456176757812,-12.457153320312,23.698120117188
0.126,-8.5733642578125,-15.620239257812,23.978393554688
0.1265,-3.4483642578125,-18.623168945312,21.896362304688
0.127,1.0760498046875,-21.065551757812,19.894409179688
0.1275,5.2801513671875,-22.667114257812,17.411987304688
0.128,10.645385742188,-24.308715820312,13.768432617188
0.1285,14.128784179688,-23.307739257812,9.2840576171875
0.129,17.772338867188,-23.628051757812,6.0408935546875
0.1295,20.014526367188,-21.505981445312,1.5965576171875
0.13,22.617065429688,-19.584106445312,-2.8878173828125
0.1305,23.337768554688,-16.140747070312,-7.0919189453125
0.131,23.978393554688,-12.136840820312,-11.816528320312
0.1315,23.537963867188,-8.8536376953125,-14.739379882812
0.132,22.496948242188,-4.3292236328125,-18.262817382812
0.1325,20.575073242188,-0.2852783203125,-20.384887695312
0.133,18.453002929688,4.3592529296875,-22.867309570312
0.1335,14.729370117188,9.5242919921875,-24.308715820312
0.134,10.164916992188,13.448120117188,-23.668090820312
0.1345,7.3621826171875,16.571166992188,-23.948364257812
0.135,2.0770263671875,19.293823242188,-21.465942382812
0.1355,-2.4073486328125,21.816284179688,-19.624145507812
0.136,-6.7716064453125,23.017456054688,-16.501098632812
0.1365,-11.896606445312,24.338745117188,-12.817504882812
0.137,-15.099731445312,23.337768554688,-8.6934814453125
0.1375,-18.663208007812,23.097534179688,-5.0098876953125
0.138,-20.705200195312,20.935424804688,-0.7657470703125
0.1385,-23.147583007812,18.773315429688,3.9588623046875
0.139,-23.588012695312,14.889526367188,8.3631591796875
0.1395,-23.828247070312,10.685424804688,12.887573242188
0.14,-23.628051757812,7.7625732421875,15.690307617188
0.1405,-22.026489257812,2.8377685546875,18.973510742188
0.141,-20.144653320312,-1.4063720703125,21.335815429688
0.1415,-17.421997070312,-6.1710205078125,23.337768554688
0.142,-13.738403320312,-11.095825195312,24.619018554688
0.1425,-8.9737548828125,-14.779418945312,23.578002929688
0.143,-5.8106689453125,-17.822387695312,23.457885742188
0.1435,-0.4454345703125,-20.384887695312,20.695190429688
0.144,4.1990966796875,-23.027465820312,18.853393554688
0.1445,8.9237060546875,-23.628051757812,14.769409179688
0.145,13.488159179688,-24.669067382812,11.245971679688
0.1455,16.691284179688,-23.748168945312,7.2020263671875
0.146,20.134643554688,-22.787231445312,2.8778076171875
0.1465,22.056518554688,-20.344848632812,-1.5264892578125
0.147,24.218627929688,-17.782348632812,-6.3311767578125
0.1475,24.258666992188,-13.658325195312,-10.575317382812
0.148,24.138549804688,-9.3741455078125,-14.779418945312
0.1485,23.738159179688,-6.3712158203125,-17.462036132812
0.149,21.616088867188,-1.0059814453125,-20.745239257812
0.1495,19.534057617188,3.5184326171875,-23.107543945312
0.15,15.690307617188,8.6033935546875,-24.308715820312
0.1505,12.327026367188,12.967651367188,-25.349731445312
0.151,7.5223388671875,16.531127929688,-24.068481445312
0.1515,3.8787841796875,19.413940429688,-23.347778320312
0.152,-1.5665283203125,21.816284179688,-20.424926757812
0.1525,-6.3712158203125,24.378784179688,-18.262817382812
0.153,-11.175903320312,24.258666992188,-13.458129882812
0.1535,-15.339965820312,24.859252929688,-10.014770507812
0.154,-18.342895507812,23.858276367188,-6.0909423828125
0.1545,-21.505981445312,22.376831054688,-1.3262939453125
0.155,-23.187622070312,19.614135742188,3.1580810546875
0.1555,-24.909301757812,16.370971679688,8.2030029296875
0.156,-24.709106445312,12.206909179688,12.246948242188
0.1565,-24.268676757812,7.8026123046875,16.250854492188
0.157,-23.588012695312,4.6395263671875,18.733276367188
0.1575,-21.225708007812,-0.8057861328125,21.816284179688
0.158,-18.863403320312,-5.6104736328125,24.178588867188
0.1585,-14.298950195312,-10.575317382812,24.659057617188
0.159,-11.135864257812,-14.539184570312,25.379760742188
0.1595,-6.2510986328125,-17.782348632812,23.858276367188
0.16,-1.8468017578125,-20.665161132812,22.296752929688
0.1605,3.0379638671875,-22.707153320312,19.534057617188
0.161,8.4031982421875,-25.149536132812,16.731323242188
0.1615,12.727416992188,-24.588989257812,11.886596679688
0.162,16.771362304688,-24.829223632812,8.2430419921875
0.1625,19.534057617188,-23.668090820312,4.3992919921875
0.163,22.577026367188,-21.786254882812,-0.6055908203125
0.1635,24.018432617188,-18.863403320312,-5.0499267578125
0.164,25.139526367188,-15.059692382812,-10.054809570312
0.1645,25.019409179688,-11.215942382812,-13.778442382812
0.165,24.098510742188,-6.6514892578125,-17.502075195312
0.1655,22.937377929688,-3.0479736328125,-19.944458007812
0.166,20.655151367188,2.0770263671875,-22.787231445312
0.1665,17.692260742188,7.4022216796875,-25.109497070312
0.167,12.807495117188,12.086791992188,-24.949340820312
0.1675,9.6844482421875,15.770385742188,-25.469848632812
0.168,4.8797607421875,18.853393554688,-23.748168945312
0.1685,0.1151123046875,21.656127929688,-21.866333007812
0.169,-4.4093017578125,23.337768554688,-19.183715820312
0.1695,-10.214965820312,25.499877929688,-15.660278320312
0.17,-14.058715820312,24.659057617188,-11.095825195312
0.1705,-18.022583007812,24.739135742188,-7.1719970703125
0.171,-20.464965820312,23.177612304688,-3.2481689453125
0.1715,-23.227661132812,21.135620117188,1.6766357421875
0.172,-24.508911132812,17.812377929688,6.4012451171875
0.1725,-25.069458007812,13.368041992188,11.406127929688
0.173,-25.029418945312,9.9647216796875,14.889526367188
0.1735,-23.908325195312,5.2000732421875,18.533081054688
0.174,-22.346801757812,1.2362060546875,20.975463867188
0.1745,-19.984497070312,-3.6085205078125,23.377807617188
0.175,-16.461059570312,-9.2139892578125,25.499877929688
0.1755,-11.496215820312,-13.498168945312,24.739135742188
0.176,-8.3331298828125,-17.061645507812,25.179565429688
0.1765,-3.2481689453125,-19.864379882812,22.937377929688
0.177,1.7967529296875,-22.747192382812,20.895385742188
0.1775,6.1209716796875,-24.028442382812,17.812377929688
0.178,11.926635742188,-25.589965820312,13.768432617188
