wavelength,x,y,z
0.0,-3.06298828125,2.14208984375,1.22119140625
0.0005,-2.94287109375,2.38232421875,0.70068359375
0.001,-2.78271484375,2.62255859375,0.14013671875
0.0015,-2.62255859375,2.82275390625,-0.50048828125
0.002,-1.90185546875,2.90283203125,-1.30126953125
0.0025,-1.38134765625,2.86279296875,-1.94189453125
0.003,-0.82080078125,2.70263671875,-2.46240234375
0.0035,-0.46044921875,2.62255859375,-2.86279296875
0.004,0.22021484375,2.26220703125,-3.18310546875
0.0045,0.86083984375,1.86181640625,-3.58349609375
0.005,1.66162109375,1.22119140625,-3.82373046875
0.0055,2.22216796875,0.58056640625,-3.74365234375
0.006,2.50244140625,0.14013671875,-3.62353515625
0.0065,2.74267578125,-0.34033203125,-3.42333984375
0.007,2.98291015625,-0.82080078125,-3.18310546875
0.0075,3.02294921875,-1.54150390625,-2.42236328125
0.008,3.10302734375,-2.02197265625,-1.94189453125
0.0085,2.98291015625,-2.46240234375,-1.30126953125
0.009,2.86279296875,-2.70263671875,-0.82080078125
0.0095,2.50244140625,-2.86279296875,-0.34033203125
0.01,2.26220703125,-2.90283203125,0.38037109375
0.0105,1.54150390625,-2.90283203125,1.30126953125
0.011,0.98095703125,-2.74267578125,1.78173828125
0.0115,0.58056640625,-2.58251953125,2.18212890625
0.012,0.14013671875,-2.42236328125,2.54248046875
0.0125,-0.50048828125,-2.06201171875,2.82275390625
0.013,-1.26123046875,-1.46142578125,3.06298828125
0.0135,-1.86181640625,-0.98095703125,3.18310546875
0.014,-2.26220703125,-0.42041015625,3.10302734375
0.0145,-2.54248046875,0.02001953125,3.02294921875
0.015,-2.70263671875,0.46044921875,2.74267578125
0.0155,-3.02294921875,0.90087890625,2.58251953125
0.016,-3.06298828125,1.58154296875,1.78173828125
0.0165,-3.02294921875,1.98193359375,1.26123046875
0.017,-2.90283203125,2.30224609375,0.70068359375
0.0175,-2.90283203125,2.50244140625,0.22021484375
0.018,-2.54248046875,2.74267578125,-0.38037109375
0.0185,-2.06201171875,2.86279296875,-1.10107421875
0.019,-1.50146484375,2.86279296875,-1.86181640625
0.0195,-0.98095703125,2.70263671875,-2.34228515625
0.02,-0.54052734375,2.54248046875,-2.70263671875
0.0205,0.02001953125,2.34228515625,-3.10302734375
0.021,0.58056640625,2.06201171875,-3.54345703125
0.0215,1.50146484375,1.30126953125,-3.70361328125
0.022,1.94189453125,0.78076171875,-3.70361328125
0.0225,2.38232421875,0.30029296875,-3.66357421875
0.023,2.62255859375,-0.14013671875,-3.54345703125
0.0235,2.82275390625,-0.62060546875,-3.22314453125
0.024,3.02294921875,-1.22119140625,-2.82275390625
0.0245,3.18310546875,-1.94189453125,-2.22216796875
0.025,3.06298828125,-2.30224609375,-1.58154296875
0.0255,2.90283203125,-2.54248046875,-1.14111328125
0.026,2.74267578125,-2.70263671875,-0.58056640625
0.0265,2.50244140625,-2.90283203125,0.10009765625
0.027,1.78173828125,-2.90283203125,0.98095703125
0.0275,1.26123046875,-2.86279296875,1.58154296875
0.028,0.78076171875,-2.74267578125,1.98193359375
0.0285,0.34033203125,-2.58251953125,2.38232421875
0.029,-0.26025390625,-2.26220703125,2.70263671875
0.0295,-0.86083984375,-1.86181640625,3.06298828125
0.03,-1.74169921875,-1.14111328125,3.26318359375
0.0305,-2.14208984375,-0.62060546875,3.18310546875
0.031,-2.42236328125,-0.14013671875,3.06298828125
0.0315,-2.70263671875,0.26025390625,2.94287109375
0.032,-2.90283203125,0.78076171875,2.62255859375
0.0325,-2.90283203125,1.34130859375,1.94189453125
0.033,-3.06298828125,1.90185546875,1.42138671875
0.0335,-2.86279296875,2.26220703125,0.78076171875
0.034,-2.82275390625,2.54248046875,0.34033203125
0.0345,-2.58251953125,2.66259765625,-0.22021484375
0.035,-2.30224609375,2.86279296875,-0.82080078125
0.0355,-1.58154296875,2.86279296875,-1.70166015625
0.036,-1.06103515625,2.66259765625,-2.18212890625
0.0365,-0.62060546875,2.54248046875,-2.58251953125
0.037,-0.22021484375,2.42236328125,-2.94287109375
0.0375,0.38037109375,2.06201171875,-3.22314453125
0.038,1.10107421875,1.54150390625,-3.54345703125
0.0385,1.82177734375,0.94091796875,-3.70361328125
0.039,2.18212890625,0.46044921875,-3.58349609375
0.0395,2.46240234375,0.02001953125,-3.50341796875
0.04,2.70263671875,-0.46044921875,-3.30322265625
0.0405,2.98291015625,-0.90087890625,-3.10302734375
0.041,2.98291015625,-1.62158203125,-2.38232421875
0.0415,3.06298828125,-2.06201171875,-1.90185546875
0.042,2.94287109375,-2.38232421875,-1.30126953125
0.0425,2.82275390625,-2.58251953125,-0.82080078125
0.043,2.54248046875,-2.74267578125,-0.26025390625
0.0435,2.18212890625,-2.86279296875,0.50048828125
0.044,1.58154296875,-2.90283203125,1.26123046875
0.0445,1.02099609375,-2.74267578125,1.74169921875
0.045,0.62060546875,-2.58251953125,2.10205078125
0.0455,0.22021484375,-2.46240234375,2.50244140625
0.046,-0.46044921875,-2.14208984375,2.86279296875
0.0465,-1.26123046875,-1.46142578125,3.10302734375
0.047,-1.86181640625,-0.90087890625,3.14306640625
0.0475,-2.22216796875,-0.46044921875,3.10302734375
0.048,-2.50244140625,0.02001953125,3.02294921875
0.0485,-2.70263671875,0.50048828125,2.74267578125
0.049,-2.94287109375,0.98095703125,2.42236328125
0.0495,-3.02294921875,1.66162109375,1.70166015625
0.05,-2.94287109375,2.06201171875,1.18115234375
0.0505,-2.86279296875,2.38232421875,0.66064453125
0.051,-2.74267578125,2.58251953125,0.18017578125
0.0515,-2.50244140625,2.78271484375,-0.46044921875
0.052,-1.90185546875,2.82275390625,-1.26123046875
0.0525,-1.30126953125,2.82275390625,-1.94189453125
0.053,-0.90087890625,2.66259765625,-2.38232421875
0.0535,-0.46044921875,2.54248046875,-2.74267578125
0.054,0.10009765625,2.26220703125,-3.14306640625
0.0545,0.78076171875,1.90185546875,-3.50341796875
0.055,1.58154296875,1.22119140625,-3.70361328125
0.0555,2.06201171875,0.62060546875,-3.62353515625
0.056,2.42236328125,0.26025390625,-3.58349609375
0.0565,2.62255859375,-0.22021484375,-3.42333984375
0.057,2.86279296875,-0.78076171875,-3.18310546875
0.0575,2.94287109375,-1.30126953125,-2.54248046875
0.058,3.06298828125,-1.94189453125,-1.94189453125
0.0585,2.94287109375,-2.26220703125,-1.46142578125
0.059,2.82275390625,-2.54248046875,-0.94091796875
0.0595,2.62255859375,-2.70263671875,-0.46044921875
0.06,2.34228515625,-2.86279296875,0.26025390625
0.0605,1.66162109375,-2.94287109375,1.10107421875
0.061,1.10107421875,-2.74267578125,1.62158203125
0.0615,0.74072265625,-2.66259765625,2.06201171875
0.062,0.30029296875,-2.42236328125,2.38232421875
0.0625,-0.30029296875,-2.18212890625,2.74267578125
0.063,-1.06103515625,-1.62158203125,3.02294921875
0.0635,-1.74169921875,-1.06103515625,3.18310546875
0.064,-2.10205078125,-0.58056640625,3.06298828125
0.0645,-2.46240234375,-0.18017578125,3.06298828125
0.065,-2.62255859375,0.30029296875,2.86279296875
0.0655,-2.94287109375,0.78076171875,2.62255859375
0.066,-2.98291015625,1.42138671875,1.94189453125
0.0665,-2.98291015625,1.94189453125,1.30126953125
0.067,-2.90283203125,2.26220703125,0.82080078125
0.0675,-2.78271484375,2.50244140625,0.34033203125
0.068,-2.58251953125,2.70263671875,-0.30029296875
0.0685,-2.14208984375,2.82275390625,-0.98095703125
0.069,-1.58154296875,2.86279296875,-1.74169921875
0.0695,-0.98095703125,2.66259765625,-2.26220703125
0.07,-0.62060546875,2.58251953125,-2.62255859375
0.0705,-0.18017578125,2.34228515625,-2.98291015625
0.071,0.46044921875,2.10205078125,-3.34326171875
0.0715,1.30126953125,1.42138671875,-3.62353515625
0.072,1.94189453125,0.82080078125,-3.70361328125
0.0725,2.22216796875,0.34033203125,-3.58349609375
0.073,2.54248046875,-0.14013671875,-3.50341796875
0.0735,2.66259765625,-0.62060546875,-3.26318359375
0.074,2.94287109375,-1.14111328125,-2.86279296875
0.0745,3.14306640625,-1.74169921875,-2.26220703125
0.075,2.98291015625,-2.22216796875,-1.58154296875
0.0755,2.94287109375,-2.50244140625,-1.14111328125
0.076,2.70263671875,-2.66259765625,-0.62060546875
0.0765,2.50244140625,-2.86279296875,0.02001953125
0.077,1.86181640625,-2.94287109375,0.90087890625
0.0775,1.30126953125,-2.86279296875,1.54150390625
0.078,0.78076171875,-2.70263671875,1.94189453125
0.0785,0.42041015625,-2.58251953125,2.34228515625
0.079,-0.18017578125,-2.26220703125,2.66259765625
0.0795,-0.82080078125,-1.94189453125,3.02294921875
0.08,-1.62158203125,-1.26123046875,3.22314453125
0.0805,-2.18212890625,-0.66064453125,3.14306640625
0.081,-2.42236328125,-0.26025390625,3.10302734375
0.0815,-2.70263671875,0.10009765625,2.82275390625
0.082,-2.86279296875,0.66064453125,2.66259765625
0.0825,-2.94287109375,1.34130859375,2.02197265625
0.083,-3.06298828125,1.90185546875,1.46142578125
0.0835,-2.90283203125,2.26220703125,0.90087890625
0.084,-2.86279296875,2.50244140625,0.46044921875
0.0845,-2.58251953125,2.62255859375,-0.14013671875
0.085,-2.30224609375,2.86279296875,-0.74072265625
0.0855,-1.70166015625,2.86279296875,-1.58154296875
0.086,-1.10107421875,2.70263671875,-2.18212890625
0.0865,-0.66064453125,2.54248046875,-2.54248046875
0.087,-0.26025390625,2.42236328125,-2.90283203125
0.0875,0.26025390625,2.10205078125,-3.18310546875
0.088,1.02099609375,1.54150390625,-3.46337890625
0.0885,1.74169921875,1.02099609375,-3.70361328125
0.089,2.10205078125,0.38037109375,-3.54345703125
0.0895,2.54248046875,0.06005859375,-3.62353515625
0.09,2.62255859375,-0.38037109375,-3.30322265625
0.0905,2.90283203125,-0.82080078125,-3.14306640625
0.091,2.98291015625,-1.50146484375,-2.42236328125
0.0915,2.94287109375,-1.98193359375,-1.82177734375
0.092,2.90283203125,-2.26220703125,-1.34130859375
0.0925,2.82275390625,-2.58251953125,-0.90087890625
0.093,2.54248046875,-2.74267578125,-0.34033203125
0.0935,2.18212890625,-2.82275390625,0.38037109375
0.094,1.66162109375,-2.90283203125,1.10107421875
0.0945,1.06103515625,-2.74267578125,1.66162109375
0.095,0.70068359375,-2.62255859375,2.06201171875
0.0955,0.22021484375,-2.38232421875,2.42236328125
0.096,-0.34033203125,-2.26220703125,2.82275390625
0.0965,-1.18115234375,-1.46142578125,3.06298828125
0.097,-1.78173828125,-1.02099609375,3.14306640625
0.0975,-2.14208984375,-0.46044921875,3.14306640625
0.098,-2.50244140625,-0.14013671875,3.06298828125
0.0985,-2.70263671875,0.42041015625,2.78271484375
0.099,-2.90283203125,0.98095703125,2.42236328125
0.0995,-3.06298828125,1.58154296875,1.86181640625
0.1,-3.02294921875,2.06201171875,1.18115234375
0.1005,-2.86279296875,2.34228515625,0.70068359375
0.101,-2.70263671875,2.62255859375,0.18017578125
0.1015,-2.54248046875,2.82275390625,-0.42041015625
0.102,-1.86181640625,2.82275390625,-1.26123046875
0.1025,-1.42138671875,2.82275390625,-1.90185546875
0.103,-0.86083984375,2.62255859375,-2.38232421875
0.1035,-0.50048828125,2.54248046875,-2.70263671875
0.104,0.14013671875,2.22216796875,-3.06298828125
0.1045,0.66064453125,1.82177734375,-3.46337890625
0.105,1.58154296875,1.18115234375,-3.70361328125
0.1055,1.94189453125,0.50048828125,-3.58349609375
0.106,2.34228515625,0.18017578125,-3.54345703125
0.1065,2.58251953125,-0.26025390625,-3.38330078125
0.107,2.86279296875,-0.66064453125,-3.18310546875
0.1075,2.86279296875,-1.30126953125,-2.50244140625
0.108,3.02294921875,-1.82177734375,-2.06201171875
0.1085,2.90283203125,-2.26220703125,-1.42138671875
0.109,2.90283203125,-2.54248046875,-1.02099609375
0.1095,2.54248046875,-2.66259765625,-0.42041015625
0.11,2.38232421875,-2.86279296875,0.18017578125
0.1105,1.70166015625,-2.90283203125,1.02099609375
0.111,1.18115234375,-2.74267578125,1.58154296875
0.1115,0.74072265625,-2.58251953125,1.94189453125
0.112,0.34033203125,-2.54248046875,2.38232421875
0.1125,-0.30029296875,-2.26220703125,2.66259765625
0.113,-0.98095703125,-1.70166015625,2.94287109375
0.1135,-1.66162109375,-1.34130859375,3.10302734375
0.114,-2.10205078125,-0.62060546875,3.14306640625
0.1145,-2.38232421875,-0.22021484375,3.06298828125
0.115,-2.62255859375,0.30029296875,2.82275390625
0.1155,-2.94287109375,0.74072265625,2.70263671875
0.116,-2.94287109375,1.46142578125,1.94189453125
0.1165,-3.02294921875,1.94189453125,1.38134765625
0.117,-2.98291015625,2.30224609375,0.86083984375
0.1175,-2.90283203125,2.58251953125,0.38037109375
0.118,-2.58251953125,2.74267578125,-0.30029296875
0.1185,-2.22216796875,2.90283203125,-0.98095703125
0.119,-1.58154296875,2.94287109375,-1.78173828125
0.1195,-0.98095703125,2.78271484375,-2.34228515625
0.12,-0.58056640625,2.62255859375,-2.70263671875
0.1205,0.02001953125,2.42236328125,-3.14306640625
0.121,0.58056640625,2.10205078125,-3.54345703125
0.1215,1.54150390625,1.30126953125,-3.82373046875
0.122,2.06201171875,0.78076171875,-3.78369140625
0.1225,2.46240234375,0.30029296875,-3.70361328125
0.123,2.66259765625,-0.18017578125,-3.58349609375
0.1235,2.86279296875,-0.66064453125,-3.22314453125
0.124,3.14306640625,-1.26123046875,-2.86279296875
0.1245,3.18310546875,-1.98193359375,-2.10205078125
0.125,3.10302734375,-2.38232421875,-1.50146484375
0.1255,2.90283203125,-2.58251953125,-0.98095703125
0.126,2.78271484375,-2.82275390625,-0.50048828125
0.1265,2.42236328125,-2.90283203125,0.26025390625
0.127,1.74169921875,-2.98291015625,1.10107421875
0.1275,1.14111328125,-2.90283203125,1.78173828125
0.128,0.66064453125,-2.70263671875,2.22216796875
0.1285,0.26025390625,-2.54248046875,2.46240234375
0.129,-0.34033203125,-2.22216796875,2.78271484375
0.1295,-0.94091796875,-1.90185546875,3.02294921875
0.13,-1.90185546875,-1.02099609375,3.30322265625
0.1305,-2.26220703125,-0.50048828125,3.18310546875
0.131,-2.58251953125,0.02001953125,3.06298828125
0.1315,-2.74267578125,0.34033203125,2.94287109375
0.132,-2.90283203125,0.86083984375,2.54248046875
0.1325,-2.98291015625,1.42138671875,1.98193359375
0.133,-3.06298828125,1.94189453125,1.38134765625
0.1335,-2.94287109375,2.30224609375,0.82080078125
0.134,-2.78271484375,2.50244140625,0.30029296875
0.1345,-2.58251953125,2.70263671875,-0.22021484375
0.135,-2.38232421875,2.86279296875,-0.78076171875
0.1355,-1.62158203125,2.86279296875,-1.66162109375
0.136,-1.06103515625,2.70263671875,-2.22216796875
0.1365,-0.62060546875,2.62255859375,-2.54248046875
0.137,-0.26025390625,2.42236328125,-2.94287109375
0.1375,0.46044921875,2.18212890625,-3.26318359375
0.138,1.02099609375,1.62158203125,-3.54345703125
0.1385,1.78173828125,0.98095703125,-3.74365234375
0.139,2.18212890625,0.50048828125,-3.58349609375
0.1395,2.54248046875,0.06005859375,-3.54345703125
0.14,2.74267578125,-0.38037109375,-3.46337890625
0.1405,2.98291015625,-0.90087890625,-3.18310546875
0.141,3.02294921875,-1.54150390625,-2.46240234375
0.1415,3.06298828125,-2.06201171875,-1.90185546875
0.142,3.02294921875,-2.42236328125,-1.34130859375
0.1425,2.86279296875,-2.62255859375,-0.82080078125
0.143,2.62255859375,-2.82275390625,-0.30029296875
0.1435,2.26220703125,-2.98291015625,0.50048828125
0.144,1.58154296875,-2.98291015625,1.30126953125
0.1445,1.02099609375,-2.82275390625,1.86181640625
0.145,0.62060546875,-2.74267578125,2.26220703125
0.1455,0.18017578125,-2.42236328125,2.62255859375
0.146,-0.54052734375,-2.18212890625,2.98291015625
0.1465,-1.38134765625,-1.46142578125,3.18310546875
0.147,-2.06201171875,-0.82080078125,3.34326171875
0.1475,-2.42236328125,-0.34033203125,3.18310546875
0.148,-2.66259765625,0.14013671875,3.06298828125
0.1485,-2.86279296875,0.58056640625,2.82275390625
0.149,-3.14306640625,1.14111328125,2.42236328125
0.1495,-3.18310546875,1.86181640625,1.66162109375
0.15,-3.06298828125,2.26220703125,0.98095703125
0.1505,-2.94287109375,2.54248046875,0.50048828125
0.151,-2.78271484375,2.70263671875,0.02001953125
0.1515,-2.46240234375,2.86279296875,-0.62060546875
0.152,-1.82177734375,2.90283203125,-1.46142578125
0.1525,-1.26123046875,2.86279296875,-2.14208984375
0.153,-0.70068359375,2.58251953125,-2.58251953125
0.1535,-0.38037109375,2.50244140625,-2.82275390625
0.154,0.26025390625,2.22216796875,-3.26318359375
0.1545,0.90087890625,1.78173828125,-3.54345703125
0.155,1.74169921875,1.10107421875,-3.78369140625
0.1555,2.26220703125,0.46044921875,-3.70361328125
0.156,2.54248046875,0.06005859375,-3.58349609375
0.1565,2.70263671875,-0.34033203125,-3.38330078125
0.157,2.90283203125,-0.82080078125,-3.14306640625
0.1575,2.98291015625,-1.38134765625,-2.58251953125
0.158,3.06298828125,-1.98193359375,-1.94189453125
0.1585,2.94287109375,-2.30224609375,-1.42138671875
0.159,2.86279296875,-2.58251953125,-0.94091796875
0.1595,2.70263671875,-2.74267578125,-0.46044921875
0.16,2.42236328125,-2.86279296875,0.18017578125
0.1605,1.74169921875,-3.06298828125,1.02099609375
0.161,1.18115234375,-2.86279296875,1.62158203125
0.1615,0.66064453125,-2.82275390625,2.06201171875
0.162,0.34033203125,-2.54248046875,2.42236328125
0.1625,-0.22021484375,-2.30224609375,2.74267578125
0.163,-0.94091796875,-1.78173828125,3.02294921875
0.1635,-1.66162109375,-1.22119140625,3.26318359375
0.164,-2.14208984375,-0.62060546875,3.18310546875
0.1645,-2.50244140625,-0.18017578125,3.14306640625
0.165,-2.70263671875,0.30029296875,2.94287109375
0.1655,-2.98291015625,0.78076171875,2.70263671875
0.166,-3.06298828125,1.46142578125,2.06201171875
0.1665,-3.14306640625,2.06201171875,1.34130859375
0.167,-3.06298828125,2.38232421875,0.90087890625
0.1675,-2.90283203125,2.66259765625,0.34033203125
0.168,-2.70263671875,2.86279296875,-0.30029296875
0.1685,-2.14208984375,2.90283203125,-1.06103515625
0.169,-1.58154296875,2.98291015625,-1.86181640625
0.1695,-0.86083984375,2.78271484375,-2.58251953125
0.17,-0.54052734375,2.70263671875,-2.82275390625
0.1705,0.02001953125,2.38232421875,-3.18310546875
0.171,0.62060546875,2.06201171875,-3.54345703125
0.1715,1.54150390625,1.30126953125,-3.74365234375
0.172,2.18212890625,0.70068359375,-3.82373046875
0.1725,2.50244140625,0.22021484375,-3.66357421875
0.173,2.74267578125,-0.22021484375,-3.54345703125
0.1735,2.86279296875,-0.66064453125,-3.18310546875
0.174,3.02294921875,-1.22119140625,-2.74267578125
0.1745,3.10302734375,-1.86181640625,-2.10205078125
0.175,2.98291015625,-2.34228515625,-1.42138671875
0.1755,2.86279296875,-2.50244140625,-0.98095703125
0.176,2.62255859375,-2.66259765625,-0.46044921875
0.1765,2.50244140625,-2.82275390625,0.10009765625
0.177,1.74169921875,-2.86279296875,0.94091796875
0.1775,1.34130859375,-2.78271484375,1.54150390625
0.178,0.70068359375,-2.58251953125,1.94189453125
0.1785,0.38037109375,-2.54248046875,2.30224609375
0.179,-0.14013671875,-2.22216796875,2.54248046875
0.1795,-0.70068359375,-1.94189453125,2.90283203125
0.18,-1.46142578125,-1.30126953125,3.18310546875
0.1805,-1.98193359375,-0.70068359375,3.10302734375
0.181,-2.26220703125,-0.30029296875,3.02294921875
0.1815,-2.58251953125,0.14013671875,2.94287109375
0.182,-2.82275390625,0.58056640625,2.74267578125
0.1825,-2.86279296875,1.14111328125,2.26220703125
0.183,-3.02294921875,1.66162109375,1.74169921875
0.1835,-2.94287109375,2.10205078125,1.10107421875
0.184,-2.90283203125,2.42236328125,0.62060546875
0.1845,-2.74267578125,2.62255859375,0.18017578125
0.185,-2.58251953125,2.82275390625,-0.50048828125
0.1855,-1.98193359375,2.86279296875,-1.30126953125
0.186,-1.30126953125,2.82275390625,-1.94189453125
0.1865,-0.90087890625,2.70263671875,-2.42236328125
0.187,-0.46044921875,2.62255859375,-2.86279296875
0.1875,0.14013671875,2.30224609375,-3.22314453125
0.188,0.90087890625,1.78173828125,-3.54345703125
0.1885,1.62158203125,1.26123046875,-3.82373046875
0.189,2.18212890625,0.58056640625,-3.78369140625
0.1895,2.50244140625,0.18017578125,-3.70361328125
0.19,2.74267578125,-0.34033203125,-3.46337890625
0.1905,3.06298828125,-0.82080078125,-3.22314453125
0.191,3.10302734375,-1.58154296875,-2.42236328125
0.1915,3.14306640625,-2.10205078125,-1.86181640625
0.192,3.02294921875,-2.46240234375,-1.30126953125
0.1925,2.82275390625,-2.74267578125,-0.74072265625
0.193,2.54248046875,-2.86279296875,-0.18017578125
0.1935,2.10205078125,-2.94287109375,0.50048828125
0.194,1.46142578125,-2.98291015625,1.42138671875
0.1945,0.90087890625,-2.78271484375,1.94189453125
0.195,0.50048828125,-2.58251953125,2.26220703125
0.1955,0.02001953125,-2.34228515625,2.54248046875
0.196,-0.62060546875,-2.06201171875,2.90283203125
0.1965,-1.46142578125,-1.26123046875,3.06298828125
0.197,-1.94189453125,-0.82080078125,3.18310546875
0.1975,-2.34228515625,-0.30029296875,3.06298828125
0.198,-2.58251953125,0.10009765625,2.98291015625
0.1985,-2.70263671875,0.58056640625,2.62255859375
0.199,-2.94287109375,1.02099609375,2.38232421875
0.1995,-3.02294921875,1.66162109375,1.66162109375
