wavelength,x,y,z
0.0,4.334228515625,2.732666015625,-6.676513671875
0.0005,5.175048828125,1.411376953125,-6.636474609375
0.001,5.735595703125,0.570556640625,-6.596435546875
0.0015,5.735595703125,-0.310302734375,-6.196044921875
0.002,5.455322265625,-1.271240234375,-5.195068359375
0.0025,5.335205078125,-2.512451171875,-4.073974609375
0.003,5.135009765625,-3.873779296875,-2.792724609375
0.0035,4.854736328125,-4.914794921875,-1.671630859375
0.004,4.654541015625,-5.635498046875,-0.910888671875
0.0045,3.853759765625,-5.835693359375,0.050048828125
0.005,2.692626953125,-6.035888671875,1.291259765625
0.0055,1.411376953125,-6.276123046875,2.812744140625
0.006,0.250244140625,-6.316162109375,4.013916015625
0.0065,-0.590576171875,-6.556396484375,5.014892578125
0.007,-1.351318359375,-6.356201171875,5.615478515625
0.0075,-2.432373046875,-5.435302734375,5.935791015625
0.008,-3.713623046875,-4.194091796875,6.256103515625
0.0085,-4.874755859375,-2.912841796875,6.416259765625
0.009,-5.595458984375,-1.831787109375,6.296142578125
0.0095,-5.955810546875,-1.111083984375,6.216064453125
0.01,-5.795654296875,-0.310302734375,5.615478515625
0.0105,-5.555419921875,0.810791015625,4.614501953125
0.011,-5.475341796875,2.092041015625,3.533447265625
0.0115,-5.275146484375,3.333251953125,2.372314453125
0.012,-5.074951171875,4.214111328125,1.411376953125
0.0125,-4.674560546875,4.814697265625,0.690673828125
0.013,-3.833740234375,4.974853515625,-0.310302734375
0.0135,-2.752685546875,5.175048828125,-1.551513671875
0.014,-1.591552734375,5.415283203125,-2.952880859375
0.0145,-0.630615234375,5.575439453125,-4.033935546875
0.015,0.170166015625,5.815673828125,-4.994873046875
0.0155,0.970947265625,5.455322265625,-5.515380859375
0.016,2.092041015625,4.494384765625,-5.835693359375
0.0165,3.373291015625,3.333251953125,-6.196044921875
0.017,4.414306640625,2.132080078125,-6.316162109375
0.0175,5.054931640625,1.131103515625,-6.356201171875
0.018,5.335205078125,0.530517578125,-6.236083984375
0.0185,5.175048828125,-0.390380859375,-5.635498046875
0.019,5.054931640625,-1.391357421875,-4.674560546875
0.0195,5.014892578125,-2.712646484375,-3.593505859375
0.02,4.814697265625,-3.833740234375,-2.512451171875
0.0205,4.734619140625,-4.754638671875,-1.711669921875
0.021,4.254150390625,-5.195068359375,-0.910888671875
0.0215,3.413330078125,-5.435302734375,0.130126953125
0.022,2.372314453125,-5.755615234375,1.411376953125
0.0225,1.211181640625,-5.955810546875,2.772705078125
0.023,0.330322265625,-6.196044921875,3.853759765625
0.0235,-0.430419921875,-6.396240234375,4.734619140625
0.024,-1.311279296875,-5.915771484375,5.175048828125
0.0245,-2.472412109375,-4.994873046875,5.575439453125
0.025,-3.713623046875,-3.873779296875,5.935791015625
0.0255,-4.674560546875,-2.752685546875,5.975830078125
0.026,-5.275146484375,-1.951904296875,6.135986328125
0.0265,-5.395263671875,-1.271240234375,5.815673828125
0.027,-5.275146484375,-0.390380859375,5.135009765625
0.0275,-5.275146484375,0.770751953125,4.334228515625
0.028,-5.195068359375,2.052001953125,3.293212890625
0.0285,-5.074951171875,3.093017578125,2.292236328125
0.029,-4.994873046875,3.893798828125,1.571533203125
0.0295,-4.474365234375,4.334228515625,0.770751953125
0.03,-3.553466796875,4.574462890625,-0.310302734375
0.0305,-2.592529296875,5.014892578125,-1.631591796875
0.031,-1.591552734375,5.255126953125,-2.872802734375
0.0315,-0.830810546875,5.575439453125,-3.913818359375
0.032,0.010009765625,5.615478515625,-4.714599609375
0.0325,0.970947265625,4.934814453125,-5.155029296875
0.033,2.212158203125,4.013916015625,-5.635498046875
0.0335,3.373291015625,2.892822265625,-5.955810546875
0.034,4.214111328125,1.931884765625,-6.075927734375
0.0345,4.814697265625,1.251220703125,-6.196044921875
0.035,4.854736328125,0.570556640625,-5.795654296875
0.0355,4.814697265625,-0.470458984375,-5.114990234375
0.036,4.854736328125,-1.591552734375,-4.274169921875
0.0365,4.814697265625,-2.832763671875,-3.233154296875
0.037,4.734619140625,-3.873779296875,-2.352294921875
0.0375,4.534423828125,-4.594482421875,-1.631591796875
0.038,3.893798828125,-4.994873046875,-0.790771484375
0.0385,3.052978515625,-5.315185546875,0.450439453125
0.039,1.971923828125,-5.715576171875,1.811767578125
0.0395,1.051025390625,-5.955810546875,2.972900390625
0.04,0.370361328125,-6.356201171875,4.013916015625
0.0405,-0.590576171875,-6.196044921875,4.694580078125
0.041,-1.671630859375,-5.435302734375,5.094970703125
0.0415,-2.912841796875,-4.474365234375,5.575439453125
0.042,-4.033935546875,-3.273193359375,5.815673828125
0.0425,-4.834716796875,-2.392333984375,5.975830078125
0.043,-5.195068359375,-1.671630859375,5.935791015625
0.0435,-5.195068359375,-0.910888671875,5.415283203125
0.044,-5.155029296875,0.170166015625,4.734619140625
0.0445,-5.235107421875,1.411376953125,3.773681640625
0.045,-5.114990234375,2.572509765625,2.692626953125
0.0455,-5.114990234375,3.533447265625,1.931884765625
0.046,-4.714599609375,4.093994140625,1.211181640625
0.0465,-3.913818359375,4.454345703125,0.210205078125
0.047,-3.032958984375,4.814697265625,-1.151123046875
0.0475,-1.951904296875,5.135009765625,-2.472412109375
0.048,-1.111083984375,5.455322265625,-3.553466796875
0.0485,-0.390380859375,5.695556640625,-4.514404296875
0.049,0.610595703125,5.215087890625,-5.034912109375
0.0495,1.811767578125,4.294189453125,-5.515380859375
0.05,3.133056640625,3.213134765625,-5.915771484375
0.0505,4.134033203125,2.132080078125,-6.035888671875
0.051,4.774658203125,1.331298828125,-6.196044921875
0.0515,4.974853515625,0.610595703125,-5.955810546875
0.052,4.854736328125,-0.350341796875,-5.275146484375
0.0525,4.854736328125,-1.431396484375,-4.434326171875
0.053,4.854736328125,-2.752685546875,-3.393310546875
0.0535,4.734619140625,-3.833740234375,-2.352294921875
0.054,4.654541015625,-4.674560546875,-1.631591796875
0.0545,4.013916015625,-5.034912109375,-0.790771484375
0.055,3.133056640625,-5.275146484375,0.330322265625
0.0555,2.092041015625,-5.715576171875,1.731689453125
0.056,1.010986328125,-5.915771484375,2.972900390625
0.0565,0.290283203125,-6.276123046875,3.973876953125
0.057,-0.550537109375,-6.276123046875,4.814697265625
0.0575,-1.631591796875,-5.595458984375,5.175048828125
0.058,-2.832763671875,-4.514404296875,5.615478515625
0.0585,-4.033935546875,-3.353271484375,5.895751953125
0.059,-4.874755859375,-2.312255859375,5.975830078125
0.0595,-5.355224609375,-1.631591796875,6.055908203125
0.06,-5.395263671875,-0.830810546875,5.575439453125
0.0605,-5.235107421875,0.170166015625,4.814697265625
0.061,-5.275146484375,1.371337890625,3.853759765625
0.0615,-5.155029296875,2.612548828125,2.772705078125
0.062,-5.074951171875,3.573486328125,1.931884765625
0.0625,-4.794677734375,4.254150390625,1.131103515625
0.063,-4.033935546875,4.534423828125,0.290283203125
0.0635,-3.072998046875,4.814697265625,-1.031005859375
0.064,-1.991943359375,5.175048828125,-2.432373046875
0.0645,-1.031005859375,5.415283203125,-3.553466796875
0.065,-0.390380859375,5.735595703125,-4.554443359375
0.0655,0.570556640625,5.415283203125,-5.195068359375
0.066,1.771728515625,4.534423828125,-5.635498046875
0.0665,3.052978515625,3.453369140625,-6.035888671875
0.067,4.134033203125,2.252197265625,-6.196044921875
0.0675,4.894775390625,1.331298828125,-6.276123046875
0.068,5.255126953125,0.610595703125,-6.156005859375
0.0685,5.135009765625,-0.350341796875,-5.515380859375
0.069,5.014892578125,-1.431396484375,-4.594482421875
0.0695,5.014892578125,-2.752685546875,-3.513427734375
0.07,4.814697265625,-3.913818359375,-2.432373046875
0.0705,4.774658203125,-4.834716796875,-1.591552734375
0.071,4.214111328125,-5.315185546875,-0.790771484375
0.0715,3.293212890625,-5.515380859375,0.370361328125
0.072,2.212158203125,-5.835693359375,1.731689453125
0.0725,0.970947265625,-6.115966796875,3.133056640625
0.073,0.130126953125,-6.356201171875,4.214111328125
0.0735,-0.670654296875,-6.476318359375,5.054931640625
0.074,-1.631591796875,-5.795654296875,5.495361328125
0.0745,-2.912841796875,-4.674560546875,5.895751953125
0.075,-4.234130859375,-3.473388671875,6.216064453125
0.0755,-5.155029296875,-2.272216796875,6.216064453125
0.076,-5.715576171875,-1.431396484375,6.256103515625
0.0765,-5.755615234375,-0.670654296875,5.815673828125
0.077,-5.515380859375,0.450439453125,4.934814453125
0.0775,-5.435302734375,1.611572265625,3.853759765625
0.078,-5.395263671875,3.012939453125,2.692626953125
0.0785,-5.155029296875,4.013916015625,1.651611328125
0.079,-4.914794921875,4.734619140625,0.890869140625
0.0795,-4.194091796875,4.974853515625,0.010009765625
0.08,-3.032958984375,5.135009765625,-1.271240234375
0.0805,-1.831787109375,5.495361328125,-2.792724609375
0.081,-0.710693359375,5.615478515625,-4.033935546875
0.0815,0.090087890625,5.815673828125,-5.074951171875
0.082,0.930908203125,5.735595703125,-5.755615234375
0.0825,2.092041015625,4.694580078125,-6.115966796875
0.083,3.453369140625,3.453369140625,-6.436279296875
0.0835,4.694580078125,2.092041015625,-6.596435546875
0.084,5.415283203125,0.970947265625,-6.556396484375
0.0845,5.775634765625,0.210205078125,-6.436279296875
0.085,5.615478515625,-0.710693359375,-5.755615234375
0.0855,5.375244140625,-1.951904296875,-4.634521484375
0.086,5.255126953125,-3.273193359375,-3.393310546875
0.0865,5.054931640625,-4.554443359375,-2.152099609375
0.087,4.814697265625,-5.435302734375,-1.191162109375
0.0875,4.334228515625,-5.955810546875,-0.350341796875
0.088,3.293212890625,-6.115966796875,0.770751953125
0.0885,1.971923828125,-6.276123046875,2.172119140625
0.089,0.610595703125,-6.476318359375,3.773681640625
0.0895,-0.510498046875,-6.556396484375,4.814697265625
0.09,-1.151123046875,-6.676513671875,5.655517578125
0.0905,-2.072021484375,-6.075927734375,6.135986328125
0.091,-3.393310546875,-4.754638671875,6.376220703125
0.0915,-4.754638671875,-3.393310546875,6.656494140625
0.092,-5.755615234375,-2.072021484375,6.656494140625
0.0925,-6.276123046875,-1.071044921875,6.536376953125
0.093,-6.356201171875,-0.310302734375,6.135986328125
0.0935,-6.075927734375,0.770751953125,5.175048828125
0.094,-5.755615234375,2.011962890625,3.933837890625
0.0945,-5.635498046875,3.453369140625,2.612548828125
0.095,-5.275146484375,4.494384765625,1.411376953125
0.0955,-4.994873046875,5.255126953125,0.570556640625
0.096,-4.234130859375,5.535400390625,-0.350341796875
0.0965,-3.032958984375,5.575439453125,-1.551513671875
0.097,-1.711669921875,5.735595703125,-3.072998046875
0.0975,-0.430419921875,5.815673828125,-4.514404296875
0.098,0.490478515625,5.975830078125,-5.435302734375
0.0985,1.211181640625,5.935791015625,-6.156005859375
0.099,2.252197265625,5.054931640625,-6.516357421875
0.0995,3.653564453125,3.653564453125,-6.716552734375
0.1,4.934814453125,2.252197265625,-6.956787109375
0.1005,5.735595703125,0.970947265625,-6.796630859375
0.101,6.135986328125,0.130126953125,-6.716552734375
0.1015,6.055908203125,-0.830810546875,-6.115966796875
0.102,5.695556640625,-1.911865234375,-4.994873046875
0.1025,5.455322265625,-3.233154296875,-3.713623046875
0.103,5.255126953125,-4.634521484375,-2.312255859375
0.1035,4.854736328125,-5.595458984375,-1.191162109375
0.104,4.534423828125,-6.236083984375,-0.390380859375
0.1045,3.573486328125,-6.396240234375,0.650634765625
0.105,2.252197265625,-6.436279296875,1.971923828125
0.1055,0.810791015625,-6.676513671875,3.533447265625
0.106,-0.470458984375,-6.596435546875,4.814697265625
0.1065,-1.191162109375,-6.716552734375,5.735595703125
0.107,-1.951904296875,-6.396240234375,6.336181640625
0.1075,-3.193115234375,-5.275146484375,6.536376953125
0.108,-4.514404296875,-3.873779296875,6.776611328125
0.1085,-5.715576171875,-2.432373046875,6.856689453125
0.109,-6.316162109375,-1.271240234375,6.656494140625
0.1095,-6.556396484375,-0.510498046875,6.456298828125
0.11,-6.356201171875,0.490478515625,5.655517578125
0.1105,-5.955810546875,1.651611328125,4.414306640625
0.111,-5.755615234375,3.052978515625,3.093017578125
0.1115,-5.475341796875,4.334228515625,1.771728515625
0.112,-5.114990234375,5.135009765625,0.770751953125
0.1125,-4.634521484375,5.615478515625,0.010009765625
0.113,-3.553466796875,5.655517578125,-1.151123046875
0.1135,-2.192138671875,5.735595703125,-2.592529296875
0.114,-0.790771484375,5.935791015625,-4.114013671875
0.1145,0.330322265625,5.975830078125,-5.155029296875
0.115,0.970947265625,6.055908203125,-6.075927734375
0.1155,1.891845703125,5.495361328125,-6.476318359375
0.116,3.173095703125,4.174072265625,-6.716552734375
0.1165,4.494384765625,2.812744140625,-6.956787109375
0.117,5.495361328125,1.451416015625,-6.916748046875
0.1175,6.055908203125,0.410400390625,-6.756591796875
0.118,6.176025390625,-0.510498046875,-6.436279296875
0.1185,5.855712890625,-1.431396484375,-5.515380859375
0.119,5.495361328125,-2.672607421875,-4.194091796875
0.1195,5.375244140625,-4.114013671875,-2.872802734375
0.12,5.014892578125,-5.235107421875,-1.591552734375
0.1205,4.774658203125,-6.115966796875,-0.710693359375
0.121,4.013916015625,-6.396240234375,0.290283203125
0.1215,2.812744140625,-6.436279296875,1.331298828125
0.122,1.411376953125,-6.556396484375,2.932861328125
0.1225,0.050048828125,-6.636474609375,4.414306640625
0.123,-0.950927734375,-6.716552734375,5.375244140625
0.1235,-1.591552734375,-6.716552734375,6.135986328125
0.124,-2.632568359375,-5.835693359375,6.456298828125
0.1245,-3.993896484375,-4.434326171875,6.696533203125
0.125,-5.275146484375,-3.072998046875,6.896728515625
0.1255,-6.115966796875,-1.671630859375,6.736572265625
0.126,-6.556396484375,-0.790771484375,6.656494140625
0.1265,-6.476318359375,0.130126953125,6.095947265625
0.127,-6.115966796875,1.211181640625,4.974853515625
0.1275,-5.915771484375,2.532470703125,3.653564453125
0.128,-5.675537109375,3.933837890625,2.252197265625
0.1285,-5.315185546875,4.934814453125,1.091064453125
0.129,-4.994873046875,5.575439453125,0.290283203125
0.1295,-4.033935546875,5.735595703125,-0.790771484375
0.13,-2.672607421875,5.775634765625,-2.072021484375
0.1305,-1.311279296875,6.055908203125,-3.673583984375
0.131,0.090087890625,6.055908203125,-4.954833984375
0.1315,0.810791015625,6.135986328125,-5.875732421875
0.132,1.571533203125,5.855712890625,-6.476318359375
0.1325,2.812744140625,4.694580078125,-6.756591796875
0.133,4.174072265625,3.253173828125,-6.956787109375
0.1335,5.375244140625,1.851806640625,-7.036865234375
0.134,6.055908203125,0.610595703125,-6.796630859375
0.1345,6.296142578125,-0.310302734375,-6.676513671875
0.135,6.055908203125,-1.191162109375,-5.835693359375
0.1355,5.695556640625,-2.392333984375,-4.594482421875
0.136,5.455322265625,-3.793701171875,-3.233154296875
0.1365,5.094970703125,-5.074951171875,-1.911865234375
0.137,4.774658203125,-5.915771484375,-0.910888671875
0.1375,4.254150390625,-6.396240234375,0.010009765625
0.138,3.213134765625,-6.396240234375,1.010986328125
0.1385,1.851806640625,-6.476318359375,2.412353515625
0.139,0.410400390625,-6.596435546875,3.973876953125
0.1395,-0.790771484375,-6.556396484375,5.094970703125
0.14,-1.391357421875,-6.676513671875,5.895751953125
0.1405,-2.272216796875,-6.156005859375,6.336181640625
0.141,-3.513427734375,-4.874755859375,6.536376953125
0.1415,-4.794677734375,-3.553466796875,6.696533203125
0.142,-5.755615234375,-2.152099609375,6.696533203125
0.1425,-6.276123046875,-1.151123046875,6.536376953125
0.143,-6.396240234375,-0.350341796875,6.256103515625
0.1435,-6.115966796875,0.610595703125,5.375244140625
0.144,-5.755615234375,1.771728515625,4.174072265625
0.1445,-5.635498046875,3.133056640625,2.852783203125
0.145,-5.315185546875,4.214111328125,1.651611328125
0.1455,-5.074951171875,5.054931640625,0.770751953125
0.146,-4.434326171875,5.415283203125,0.010009765625
0.1465,-3.353271484375,5.455322265625,-1.151123046875
0.147,-2.072021484375,5.655517578125,-2.552490234375
0.1475,-0.750732421875,5.775634765625,-3.993896484375
0.148,0.210205078125,5.895751953125,-4.994873046875
0.1485,0.930908203125,5.975830078125,-5.835693359375
0.149,1.811767578125,5.295166015625,-6.236083984375
0.1495,3.052978515625,4.093994140625,-6.476318359375
0.15,4.374267578125,2.732666015625,-6.716552734375
0.1505,5.255126953125,1.451416015625,-6.676513671875
0.151,5.775634765625,0.570556640625,-6.636474609375
0.1515,5.815673828125,-0.310302734375,-6.236083984375
0.152,5.575439453125,-1.271240234375,-5.275146484375
0.1525,5.335205078125,-2.512451171875,-4.154052734375
0.153,5.175048828125,-3.873779296875,-2.872802734375
0.1535,4.854736328125,-4.954833984375,-1.751708984375
0.154,4.694580078125,-5.635498046875,-0.990966796875
0.1545,3.893798828125,-5.915771484375,0.010009765625
0.155,2.812744140625,-5.995849609375,1.131103515625
0.1555,1.491455078125,-6.276123046875,2.612548828125
0.156,0.290283203125,-6.356201171875,3.893798828125
0.1565,-0.590576171875,-6.516357421875,4.934814453125
0.157,-1.271240234375,-6.396240234375,5.615478515625
0.1575,-2.272216796875,-5.555419921875,5.895751953125
0.158,-3.553466796875,-4.394287109375,6.216064453125
0.1585,-4.794677734375,-3.072998046875,6.376220703125
0.159,-5.515380859375,-1.951904296875,6.336181640625
0.1595,-5.915771484375,-1.151123046875,6.296142578125
0.16,-5.835693359375,-0.390380859375,5.735595703125
0.1605,-5.595458984375,0.650634765625,4.774658203125
0.161,-5.475341796875,1.931884765625,3.693603515625
0.1615,-5.315185546875,3.133056640625,2.492431640625
0.162,-5.114990234375,4.134033203125,1.531494140625
0.1625,-4.834716796875,4.734619140625,0.770751953125
0.163,-3.993896484375,4.934814453125,-0.190185546875
0.1635,-2.912841796875,5.094970703125,-1.311279296875
0.164,-1.751708984375,5.415283203125,-2.752685546875
0.1645,-0.710693359375,5.535400390625,-3.913818359375
0.165,0.050048828125,5.815673828125,-4.914794921875
0.1655,0.850830078125,5.575439453125,-5.475341796875
0.166,1.931884765625,4.614501953125,-5.795654296875
0.1665,3.173095703125,3.533447265625,-6.115966796875
0.167,4.254150390625,2.292236328125,-6.316162109375
0.1675,5.014892578125,1.291259765625,-6.356201171875
0.168,5.335205078125,0.610595703125,-6.276123046875
0.1685,5.255126953125,-0.310302734375,-5.675537109375
0.169,5.094970703125,-1.271240234375,-4.794677734375
0.1695,4.974853515625,-2.592529296875,-3.713623046875
0.17,4.814697265625,-3.753662109375,-2.592529296875
0.1705,4.774658203125,-4.714599609375,-1.751708984375
0.171,4.334228515625,-5.235107421875,-0.990966796875
0.1715,3.493408203125,-5.435302734375,0.050048828125
0.172,2.452392578125,-5.755615234375,1.291259765625
0.1725,1.291259765625,-5.995849609375,2.692626953125
0.173,0.370361328125,-6.236083984375,3.853759765625
0.1735,-0.390380859375,-6.436279296875,4.774658203125
0.174,-1.271240234375,-5.955810546875,5.215087890625
0.1745,-2.432373046875,-5.074951171875,5.575439453125
0.175,-3.673583984375,-3.913818359375,5.975830078125
0.1755,-4.674560546875,-2.752685546875,6.055908203125
0.176,-5.315185546875,-1.911865234375,6.135986328125
0.1765,-5.475341796875,-1.231201171875,5.895751953125
0.177,-5.355224609375,-0.390380859375,5.215087890625
0.1775,-5.315185546875,0.690673828125,4.334228515625
0.178,-5.235107421875,2.052001953125,3.253173828125
0.1785,-5.114990234375,3.173095703125,2.292236328125
0.179,-4.994873046875,4.013916015625,1.531494140625
0.1795,-4.474365234375,4.454345703125,0.730712890625
0.18,-3.553466796875,4.614501953125,-0.390380859375
0.1805,-2.592529296875,5.054931640625,-1.671630859375
0.181,-1.471435546875,5.255126953125,-2.952880859375
0.1815,-0.750732421875,5.575439453125,-3.993896484375
0.182,0.050048828125,5.655517578125,-4.834716796875
0.1825,1.010986328125,5.014892578125,-5.275146484375
0.183,2.212158203125,4.093994140625,-5.635498046875
0.1835,3.453369140625,2.932861328125,-5.955810546875
0.184,4.334228515625,1.931884765625,-6.075927734375
0.1845,4.894775390625,1.131103515625,-6.236083984375
0.185,4.974853515625,0.450439453125,-5.875732421875
0.1855,4.814697265625,-0.590576171875,-5.114990234375
0.186,4.854736328125,-1.631591796875,-4.274169921875
0.1865,4.774658203125,-2.872802734375,-3.193115234375
0.187,4.654541015625,-3.873779296875,-2.272216796875
0.1875,4.534423828125,-4.674560546875,-1.591552734375
0.188,3.893798828125,-4.994873046875,-0.750732421875
