wavelength,x,y,z
0.0,-4.994873046875,-2.392333984375,6.176025390625
0.0005,-5.715576171875,-1.631591796875,6.376220703125
0.001,-5.795654296875,-1.031005859375,6.135986328125
0.0015,-5.595458984375,-0.270263671875,5.415283203125
0.002,-5.275146484375,1.051025390625,4.214111328125
0.0025,-5.114990234375,2.492431640625,2.852783203125
0.003,-5.114990234375,3.773681640625,1.851806640625
0.0035,-5.034912109375,4.614501953125,1.131103515625
0.004,-4.514404296875,4.934814453125,0.370361328125
0.0045,-3.393310546875,5.014892578125,-0.790771484375
0.005,-2.072021484375,5.215087890625,-2.312255859375
0.0055,-0.750732421875,5.455322265625,-3.833740234375
0.006,0.050048828125,5.815673828125,-4.954833984375
0.0065,0.690673828125,5.855712890625,-5.635498046875
0.007,1.611572265625,5.175048828125,-6.075927734375
0.0075,3.012939453125,3.853759765625,-6.276123046875
0.008,4.334228515625,2.372314453125,-6.396240234375
0.0085,5.335205078125,1.091064453125,-6.556396484375
0.009,5.775634765625,0.410400390625,-6.636474609375
0.0095,5.655517578125,-0.390380859375,-6.156005859375
0.01,5.295166015625,-1.311279296875,-5.074951171875
0.0105,5.054931640625,-2.712646484375,-3.713623046875
0.011,4.814697265625,-4.154052734375,-2.272216796875
0.0115,4.854736328125,-5.315185546875,-1.351318359375
0.012,4.534423828125,-5.915771484375,-0.630615234375
0.0125,3.693603515625,-6.075927734375,0.330322265625
0.013,2.292236328125,-6.035888671875,1.651611328125
0.0135,0.770751953125,-6.156005859375,3.333251953125
0.014,-0.470458984375,-6.396240234375,4.734619140625
0.0145,-1.071044921875,-6.716552734375,5.655517578125
0.015,-1.791748046875,-6.356201171875,6.176025390625
0.0155,-2.952880859375,-5.275146484375,6.416259765625
0.016,-4.354248046875,-3.713623046875,6.536376953125
0.0165,-5.595458984375,-2.272216796875,6.576416015625
0.017,-6.356201171875,-1.191162109375,6.656494140625
0.0175,-6.476318359375,-0.550537109375,6.416259765625
0.018,-6.156005859375,0.370361328125,5.695556640625
0.0185,-5.715576171875,1.571533203125,4.294189453125
0.019,-5.395263671875,3.052978515625,2.732666015625
0.0195,-5.195068359375,4.414306640625,1.411376953125
0.02,-5.114990234375,5.295166015625,0.610595703125
0.0205,-4.514404296875,5.615478515625,-0.190185546875
0.021,-3.393310546875,5.615478515625,-1.191162109375
0.0215,-1.871826171875,5.615478515625,-2.712646484375
0.022,-0.310302734375,5.695556640625,-4.354248046875
0.0225,0.610595703125,5.935791015625,-5.515380859375
0.023,1.171142578125,6.015869140625,-6.236083984375
0.0235,2.011962890625,5.415283203125,-6.596435546875
0.024,3.293212890625,4.013916015625,-6.716552734375
0.0245,4.614501953125,2.412353515625,-6.756591796875
0.025,5.695556640625,0.970947265625,-6.796630859375
0.0255,6.216064453125,0.130126953125,-6.796630859375
0.026,6.095947265625,-0.630615234375,-6.396240234375
0.0265,5.735595703125,-1.471435546875,-5.435302734375
0.027,5.255126953125,-2.712646484375,-3.993896484375
0.0275,4.934814453125,-4.194091796875,-2.392333984375
0.028,4.814697265625,-5.435302734375,-1.271240234375
0.0285,4.614501953125,-6.115966796875,-0.510498046875
0.029,3.893798828125,-6.356201171875,0.330322265625
0.0295,2.652587890625,-6.276123046875,1.411376953125
0.03,1.051025390625,-6.316162109375,3.052978515625
0.0305,-0.430419921875,-6.396240234375,4.574462890625
0.031,-1.151123046875,-6.676513671875,5.615478515625
0.0315,-1.671630859375,-6.596435546875,6.216064453125
0.032,-2.632568359375,-5.795654296875,6.496337890625
0.0325,-3.993896484375,-4.354248046875,6.656494140625
0.033,-5.315185546875,-2.752685546875,6.696533203125
0.0335,-6.276123046875,-1.511474609375,6.696533203125
0.034,-6.596435546875,-0.750732421875,6.696533203125
0.0345,-6.396240234375,0.050048828125,6.095947265625
0.035,-5.915771484375,1.010986328125,4.974853515625
0.0355,-5.555419921875,2.412353515625,3.453369140625
0.036,-5.275146484375,3.853759765625,2.011962890625
0.0365,-5.235107421875,4.974853515625,1.010986328125
0.037,-4.874755859375,5.495361328125,0.290283203125
0.0375,-3.993896484375,5.615478515625,-0.630615234375
0.038,-2.552490234375,5.575439453125,-1.951904296875
0.0385,-0.990966796875,5.695556640625,-3.633544921875
0.039,0.250244140625,5.855712890625,-4.994873046875
0.0395,0.890869140625,6.095947265625,-5.915771484375
0.04,1.531494140625,5.815673828125,-6.436279296875
0.0405,2.652587890625,4.694580078125,-6.676513671875
0.041,4.013916015625,3.173095703125,-6.756591796875
0.0415,5.255126953125,1.571533203125,-6.796630859375
0.042,6.055908203125,0.570556640625,-6.836669921875
0.0425,6.176025390625,-0.190185546875,-6.716552734375
0.043,5.895751953125,-0.950927734375,-5.915771484375
0.0435,5.415283203125,-2.072021484375,-4.634521484375
0.044,5.094970703125,-3.553466796875,-3.072998046875
0.0445,4.934814453125,-4.914794921875,-1.751708984375
0.045,4.854736328125,-5.915771484375,-0.870849609375
0.0455,4.334228515625,-6.276123046875,0.010009765625
0.046,3.253173828125,-6.356201171875,0.890869140625
0.0465,1.771728515625,-6.316162109375,2.412353515625
0.047,0.130126953125,-6.396240234375,4.093994140625
0.0475,-0.910888671875,-6.636474609375,5.335205078125
0.048,-1.431396484375,-6.756591796875,6.095947265625
0.0485,-2.272216796875,-6.276123046875,6.536376953125
0.049,-3.553466796875,-4.914794921875,6.696533203125
0.0495,-4.994873046875,-3.313232421875,6.736572265625
0.05,-6.115966796875,-1.831787109375,6.776611328125
0.0505,-6.676513671875,-0.910888671875,6.816650390625
0.051,-6.596435546875,-0.230224609375,6.416259765625
0.0515,-6.276123046875,0.730712890625,5.495361328125
0.052,-5.755615234375,2.092041015625,3.973876953125
0.0525,-5.435302734375,3.613525390625,2.332275390625
0.053,-5.315185546875,4.894775390625,1.171142578125
0.0535,-5.114990234375,5.655517578125,0.370361328125
0.054,-4.314208984375,5.815673828125,-0.510498046875
0.0545,-2.992919921875,5.735595703125,-1.671630859375
0.055,-1.351318359375,5.815673828125,-3.353271484375
0.0555,0.170166015625,5.895751953125,-4.954833984375
0.056,0.930908203125,6.095947265625,-5.955810546875
0.0565,1.491455078125,5.935791015625,-6.556396484375
0.057,2.492431640625,5.094970703125,-6.796630859375
0.0575,3.853759765625,3.493408203125,-6.956787109375
0.058,5.135009765625,1.931884765625,-6.916748046875
0.0585,6.095947265625,0.610595703125,-6.876708984375
0.059,6.376220703125,-0.190185546875,-6.796630859375
0.0595,6.095947265625,-0.910888671875,-6.156005859375
0.06,5.615478515625,-1.871826171875,-5.034912109375
0.0605,5.175048828125,-3.233154296875,-3.513427734375
0.061,4.894775390625,-4.634521484375,-1.951904296875
0.0615,4.814697265625,-5.755615234375,-0.990966796875
0.062,4.454345703125,-6.276123046875,-0.270263671875
0.0625,3.573486328125,-6.356201171875,0.610595703125
0.063,2.132080078125,-6.276123046875,1.931884765625
0.0635,0.610595703125,-6.276123046875,3.533447265625
0.064,-0.710693359375,-6.436279296875,4.934814453125
0.0645,-1.271240234375,-6.716552734375,5.775634765625
0.065,-1.911865234375,-6.436279296875,6.256103515625
0.0655,-2.952880859375,-5.475341796875,6.456298828125
0.066,-4.274169921875,-3.913818359375,6.576416015625
0.0665,-5.475341796875,-2.392333984375,6.576416015625
0.067,-6.276123046875,-1.311279296875,6.656494140625
0.0675,-6.436279296875,-0.710693359375,6.496337890625
0.068,-6.115966796875,0.090087890625,5.895751953125
0.0685,-5.715576171875,1.131103515625,4.614501953125
0.069,-5.395263671875,2.532470703125,3.173095703125
0.0695,-5.195068359375,3.853759765625,1.891845703125
0.07,-5.155029296875,4.854736328125,1.051025390625
0.0705,-4.714599609375,5.295166015625,0.330322265625
0.071,-3.793701171875,5.375244140625,-0.630615234375
0.0715,-2.392333984375,5.415283203125,-1.991943359375
0.072,-0.910888671875,5.495361328125,-3.633544921875
0.0725,0.130126953125,5.775634765625,-4.914794921875
0.073,0.690673828125,5.975830078125,-5.755615234375
0.0735,1.371337890625,5.615478515625,-6.156005859375
0.074,2.572509765625,4.494384765625,-6.396240234375
0.0745,3.893798828125,3.052978515625,-6.516357421875
0.075,5.094970703125,1.611572265625,-6.596435546875
0.0755,5.735595703125,0.770751953125,-6.716552734375
0.076,5.815673828125,0.130126953125,-6.476318359375
0.0765,5.575439453125,-0.750732421875,-5.755615234375
0.077,5.175048828125,-1.911865234375,-4.514404296875
0.0775,4.894775390625,-3.353271484375,-3.032958984375
0.078,4.814697265625,-4.634521484375,-1.871826171875
0.0785,4.774658203125,-5.475341796875,-1.151123046875
0.079,4.214111328125,-5.795654296875,-0.430419921875
0.0795,3.133056640625,-5.835693359375,0.690673828125
0.08,1.731689453125,-5.995849609375,2.172119140625
0.0805,0.330322265625,-6.115966796875,3.693603515625
0.081,-0.510498046875,-6.516357421875,4.814697265625
0.0815,-1.151123046875,-6.596435546875,5.535400390625
0.082,-1.951904296875,-5.915771484375,5.895751953125
0.0825,-3.193115234375,-4.674560546875,6.095947265625
0.083,-4.514404296875,-3.233154296875,6.256103515625
0.0835,-5.475341796875,-2.031982421875,6.376220703125
0.084,-5.955810546875,-1.311279296875,6.456298828125
0.0845,-5.915771484375,-0.710693359375,6.095947265625
0.085,-5.595458984375,0.250244140625,5.175048828125
0.0855,-5.275146484375,1.451416015625,3.853759765625
0.086,-5.074951171875,2.852783203125,2.532470703125
0.0865,-5.114990234375,4.013916015625,1.571533203125
0.087,-4.874755859375,4.694580078125,0.970947265625
0.0875,-4.234130859375,4.934814453125,0.210205078125
0.088,-3.153076171875,4.974853515625,-0.990966796875
0.0885,-1.791748046875,5.094970703125,-2.512451171875
0.089,-0.630615234375,5.375244140625,-3.873779296875
0.0895,0.050048828125,5.695556640625,-4.874755859375
0.09,0.690673828125,5.695556640625,-5.475341796875
0.0905,1.611572265625,4.974853515625,-5.795654296875
0.091,2.852783203125,3.733642578125,-5.995849609375
0.0915,4.093994140625,2.372314453125,-6.156005859375
0.092,5.014892578125,1.331298828125,-6.356201171875
0.0925,5.335205078125,0.770751953125,-6.396240234375
0.093,5.215087890625,0.130126953125,-5.955810546875
0.0935,4.934814453125,-0.830810546875,-5.034912109375
0.094,4.694580078125,-2.072021484375,-3.793701171875
0.0945,4.614501953125,-3.433349609375,-2.632568359375
0.095,4.734619140625,-4.514404296875,-1.871826171875
0.0955,4.494384765625,-5.114990234375,-1.231201171875
0.096,3.813720703125,-5.315185546875,-0.470458984375
0.0965,2.612548828125,-5.475341796875,0.890869140625
0.097,1.331298828125,-5.755615234375,2.292236328125
0.0975,0.410400390625,-6.115966796875,3.613525390625
0.098,-0.190185546875,-6.436279296875,4.534423828125
0.0985,-0.910888671875,-6.276123046875,5.135009765625
0.099,-1.951904296875,-5.395263671875,5.455322265625
0.0995,-3.233154296875,-4.194091796875,5.735595703125
0.1,-4.434326171875,-2.952880859375,5.935791015625
0.1005,-5.235107421875,-2.112060546875,6.256103515625
0.101,-5.475341796875,-1.551513671875,6.176025390625
0.1015,-5.395263671875,-0.870849609375,5.695556640625
0.102,-5.114990234375,0.250244140625,4.654541015625
0.1025,-4.994873046875,1.571533203125,3.493408203125
0.103,-5.074951171875,2.852783203125,2.492431640625
0.1035,-5.114990234375,3.813720703125,1.771728515625
0.104,-4.754638671875,4.294189453125,1.131103515625
0.1045,-3.873779296875,4.494384765625,0.170166015625
0.105,-2.752685546875,4.734619140625,-1.231201171875
0.1055,-1.591552734375,4.974853515625,-2.712646484375
0.106,-0.830810546875,5.455322265625,-3.873779296875
0.1065,-0.270263671875,5.695556640625,-4.674560546875
0.107,0.610595703125,5.375244140625,-5.155029296875
0.1075,1.771728515625,4.414306640625,-5.475341796875
0.108,3.052978515625,3.133056640625,-5.755615234375
0.1085,4.174072265625,1.971923828125,-6.035888671875
0.109,4.814697265625,1.331298828125,-6.276123046875
0.1095,4.934814453125,0.770751953125,-6.075927734375
0.11,4.774658203125,0.010009765625,-5.435302734375
0.1105,4.614501953125,-1.151123046875,-4.434326171875
0.111,4.494384765625,-2.432373046875,-3.273193359375
0.1115,4.654541015625,-3.713623046875,-2.432373046875
0.112,4.614501953125,-4.474365234375,-1.791748046875
0.1125,4.134033203125,-4.914794921875,-1.111083984375
0.113,3.213134765625,-5.114990234375,0.050048828125
0.1135,2.052001953125,-5.395263671875,1.371337890625
0.114,1.010986328125,-5.755615234375,2.772705078125
0.1145,0.450439453125,-6.196044921875,3.853759765625
0.115,-0.350341796875,-6.276123046875,4.614501953125
0.1155,-1.231201171875,-5.755615234375,5.054931640625
0.116,-2.432373046875,-4.754638671875,5.375244140625
0.1165,-3.713623046875,-3.473388671875,5.655517578125
0.117,-4.754638671875,-2.552490234375,6.015869140625
0.1175,-5.195068359375,-1.951904296875,6.135986328125
0.118,-5.235107421875,-1.311279296875,5.815673828125
0.1185,-5.034912109375,-0.470458984375,5.054931640625
0.119,-4.954833984375,0.890869140625,3.973876953125
0.1195,-4.954833984375,2.212158203125,2.892822265625
0.12,-5.114990234375,3.333251953125,2.172119140625
0.1205,-4.874755859375,3.933837890625,1.451416015625
0.121,-4.274169921875,4.254150390625,0.690673828125
0.1215,-3.233154296875,4.494384765625,-0.630615234375
0.122,-2.072021484375,4.814697265625,-2.031982421875
0.1225,-1.151123046875,5.295166015625,-3.353271484375
0.123,-0.590576171875,5.695556640625,-4.314208984375
0.1235,0.250244140625,5.535400390625,-4.954833984375
0.124,1.291259765625,4.734619140625,-5.275146484375
0.1245,2.572509765625,3.573486328125,-5.635498046875
0.125,3.813720703125,2.372314453125,-5.875732421875
0.1255,4.614501953125,1.571533203125,-6.196044921875
0.126,4.934814453125,0.970947265625,-6.156005859375
0.1265,4.854736328125,0.290283203125,-5.675537109375
0.127,4.614501953125,-0.790771484375,-4.754638671875
0.1275,4.534423828125,-2.072021484375,-3.593505859375
0.128,4.614501953125,-3.353271484375,-2.592529296875
0.1285,4.694580078125,-4.394287109375,-1.951904296875
0.129,4.334228515625,-4.874755859375,-1.271240234375
0.1295,3.493408203125,-5.114990234375,-0.390380859375
0.13,2.372314453125,-5.315185546875,1.051025390625
0.1305,1.211181640625,-5.635498046875,2.492431640625
0.131,0.490478515625,-6.115966796875,3.693603515625
0.1315,-0.190185546875,-6.356201171875,4.534423828125
0.132,-0.990966796875,-5.955810546875,5.054931640625
0.1325,-2.192138671875,-4.994873046875,5.375244140625
0.133,-3.513427734375,-3.713623046875,5.615478515625
0.1335,-4.594482421875,-2.632568359375,5.935791015625
0.134,-5.235107421875,-1.951904296875,6.135986328125
0.1345,-5.355224609375,-1.351318359375,5.935791015625
0.135,-5.155029296875,-0.590576171875,5.255126953125
0.1355,-4.994873046875,0.650634765625,4.214111328125
0.136,-4.914794921875,1.971923828125,3.052978515625
0.1365,-5.034912109375,3.173095703125,2.172119140625
0.137,-4.954833984375,3.973876953125,1.491455078125
0.1375,-4.474365234375,4.334228515625,0.770751953125
0.138,-3.473388671875,4.494384765625,-0.390380859375
0.1385,-2.272216796875,4.814697265625,-1.791748046875
0.139,-1.231201171875,5.175048828125,-3.193115234375
0.1395,-0.550537109375,5.615478515625,-4.274169921875
0.14,0.170166015625,5.615478515625,-4.994873046875
0.1405,1.131103515625,5.014892578125,-5.395263671875
0.141,2.412353515625,3.853759765625,-5.715576171875
0.1415,3.693603515625,2.572509765625,-5.915771484375
0.142,4.694580078125,1.531494140625,-6.196044921875
0.1425,5.094970703125,0.970947265625,-6.316162109375
0.143,5.054931640625,0.290283203125,-5.915771484375
0.1435,4.814697265625,-0.670654296875,-4.994873046875
0.144,4.654541015625,-1.951904296875,-3.833740234375
0.1445,4.614501953125,-3.353271484375,-2.712646484375
0.145,4.734619140625,-4.474365234375,-1.951904296875
0.1455,4.494384765625,-5.114990234375,-1.271240234375
0.146,3.773681640625,-5.275146484375,-0.430419921875
0.1465,2.572509765625,-5.435302734375,0.970947265625
0.147,1.291259765625,-5.715576171875,2.452392578125
0.1475,0.410400390625,-6.115966796875,3.773681640625
0.148,-0.310302734375,-6.436279296875,4.734619140625
0.1485,-1.031005859375,-6.236083984375,5.295166015625
0.149,-2.192138671875,-5.235107421875,5.615478515625
0.1495,-3.553466796875,-3.913818359375,5.895751953125
0.15,-4.754638671875,-2.592529296875,6.095947265625
0.1505,-5.555419921875,-1.791748046875,6.296142578125
0.151,-5.715576171875,-1.151123046875,6.135986328125
0.1515,-5.515380859375,-0.390380859375,5.495361328125
0.152,-5.235107421875,0.810791015625,4.334228515625
0.1525,-5.114990234375,2.212158203125,3.052978515625
0.153,-5.074951171875,3.493408203125,1.931884765625
0.1535,-5.074951171875,4.334228515625,1.251220703125
0.154,-4.554443359375,4.814697265625,0.570556640625
0.1545,-3.553466796875,4.854736328125,-0.550537109375
0.155,-2.232177734375,5.094970703125,-1.991943359375
0.1555,-0.950927734375,5.295166015625,-3.553466796875
0.156,-0.190185546875,5.735595703125,-4.674560546875
0.1565,0.490478515625,5.775634765625,-5.435302734375
0.157,1.371337890625,5.255126953125,-5.835693359375
0.1575,2.692626953125,3.973876953125,-6.115966796875
0.158,4.013916015625,2.532470703125,-6.276123046875
0.1585,5.094970703125,1.331298828125,-6.436279296875
0.159,5.615478515625,0.610595703125,-6.516357421875
0.1595,5.535400390625,-0.150146484375,-6.156005859375
0.16,5.215087890625,-0.990966796875,-5.235107421875
0.1605,4.934814453125,-2.312255859375,-3.913818359375
0.161,4.774658203125,-3.793701171875,-2.552490234375
0.1615,4.774658203125,-4.994873046875,-1.591552734375
0.162,4.574462890625,-5.595458984375,-0.870849609375
0.1625,3.853759765625,-5.795654296875,0.010009765625
0.163,2.572509765625,-5.835693359375,1.211181640625
0.1635,1.131103515625,-6.035888671875,2.812744140625
0.164,0.010009765625,-6.276123046875,4.254150390625
0.1645,-0.750732421875,-6.596435546875,5.255126953125
0.165,-1.431396484375,-6.436279296875,5.815673828125
0.1655,-2.512451171875,-5.515380859375,6.216064453125
0.166,-3.913818359375,-4.033935546875,6.376220703125
0.1665,-5.235107421875,-2.552490234375,6.456298828125
0.167,-6.115966796875,-1.471435546875,6.576416015625
0.1675,-6.316162109375,-0.790771484375,6.456298828125
0.168,-6.115966796875,0.010009765625,5.855712890625
0.1685,-5.675537109375,1.091064453125,4.614501953125
0.169,-5.395263671875,2.572509765625,3.093017578125
0.1695,-5.235107421875,3.933837890625,1.771728515625
0.17,-5.195068359375,5.014892578125,0.890869140625
0.1705,-4.674560546875,5.415283203125,0.210205078125
0.171,-3.713623046875,5.455322265625,-0.830810546875
0.1715,-2.192138671875,5.495361328125,-2.312255859375
0.172,-0.630615234375,5.655517578125,-3.993896484375
0.1725,0.370361328125,5.895751953125,-5.235107421875
0.173,0.970947265625,6.055908203125,-6.035888671875
0.1735,1.771728515625,5.495361328125,-6.436279296875
0.174,3.012939453125,4.214111328125,-6.596435546875
0.1745,4.414306640625,2.692626953125,-6.716552734375
0.175,5.575439453125,1.211181640625,-6.756591796875
0.1755,6.135986328125,0.250244140625,-6.796630859375
0.176,6.095947265625,-0.510498046875,-6.436279296875
0.1765,5.735595703125,-1.351318359375,-5.595458984375
0.177,5.295166015625,-2.592529296875,-4.154052734375
0.1775,4.934814453125,-4.154052734375,-2.552490234375
0.178,4.814697265625,-5.315185546875,-1.351318359375
0.1785,4.614501953125,-6.115966796875,-0.590576171875
0.179,3.973876953125,-6.356201171875,0.290283203125
0.1795,2.772705078125,-6.276123046875,1.331298828125
0.18,1.131103515625,-6.356201171875,3.012939453125
0.1805,-0.430419921875,-6.396240234375,4.574462890625
0.181,-1.151123046875,-6.716552734375,5.655517578125
0.1815,-1.711669921875,-6.676513671875,6.296142578125
0.182,-2.632568359375,-5.835693359375,6.576416015625
0.1825,-3.993896484375,-4.354248046875,6.696533203125
0.183,-5.315185546875,-2.752685546875,6.696533203125
0.1835,-6.356201171875,-1.431396484375,6.736572265625
0.184,-6.716552734375,-0.630615234375,6.696533203125
0.1845,-6.476318359375,0.090087890625,6.135986328125
0.185,-6.075927734375,1.051025390625,5.054931640625
0.1855,-5.635498046875,2.412353515625,3.453369140625
0.186,-5.315185546875,3.933837890625,1.931884765625
0.1865,-5.195068359375,5.094970703125,0.890869140625
0.187,-4.834716796875,5.695556640625,0.170166015625
0.1875,-3.993896484375,5.735595703125,-0.710693359375
0.188,-2.592529296875,5.655517578125,-1.991943359375
