wavelength,x,y,z
0.0,-1.231201171875,5.615478515625,-3.513427734375
0.0005,-0.470458984375,5.975830078125,-4.714599609375
0.001,0.330322265625,6.216064453125,-5.675537109375
0.0015,1.331298828125,5.495361328125,-6.115966796875
0.002,2.732666015625,4.334228515625,-6.436279296875
0.0025,4.134033203125,2.932861328125,-6.716552734375
0.003,5.175048828125,1.731689453125,-6.836669921875
0.0035,5.735595703125,0.970947265625,-6.996826171875
0.004,5.695556640625,0.170166015625,-6.516357421875
0.0045,5.375244140625,-0.910888671875,-5.475341796875
0.005,5.135009765625,-2.232177734375,-4.194091796875
0.0055,5.014892578125,-3.713623046875,-2.832763671875
0.006,4.974853515625,-4.914794921875,-1.791748046875
0.0065,4.774658203125,-5.715576171875,-0.990966796875
0.007,3.933837890625,-5.915771484375,0.010009765625
0.0075,2.612548828125,-5.995849609375,1.291259765625
0.008,1.291259765625,-6.276123046875,2.852783203125
0.0085,0.170166015625,-6.636474609375,4.334228515625
0.009,-0.630615234375,-6.996826171875,5.415283203125
0.0095,-1.511474609375,-6.796630859375,6.135986328125
0.01,-2.712646484375,-5.675537109375,6.456298828125
0.0105,-4.114013671875,-4.274169921875,6.736572265625
0.011,-5.395263671875,-2.872802734375,6.896728515625
0.0115,-6.196044921875,-1.791748046875,6.976806640625
0.012,-6.476318359375,-1.071044921875,6.896728515625
0.0125,-6.236083984375,-0.230224609375,6.095947265625
0.013,-5.795654296875,1.051025390625,4.814697265625
0.0135,-5.555419921875,2.532470703125,3.373291015625
0.014,-5.435302734375,3.973876953125,1.971923828125
0.0145,-5.275146484375,4.974853515625,1.091064453125
0.015,-4.794677734375,5.455322265625,0.290283203125
0.0155,-3.713623046875,5.535400390625,-0.870849609375
0.016,-2.272216796875,5.655517578125,-2.352294921875
0.0165,-0.830810546875,5.855712890625,-3.993896484375
0.017,0.170166015625,6.135986328125,-5.275146484375
0.0175,0.770751953125,6.416259765625,-6.276123046875
0.018,1.811767578125,5.815673828125,-6.716552734375
0.0185,3.173095703125,4.454345703125,-6.916748046875
0.019,4.494384765625,3.012939453125,-7.116943359375
0.0195,5.615478515625,1.571533203125,-7.197021484375
0.02,6.216064453125,0.650634765625,-7.197021484375
0.0205,6.256103515625,-0.190185546875,-6.876708984375
0.021,5.815673828125,-1.111083984375,-5.795654296875
0.0215,5.415283203125,-2.392333984375,-4.434326171875
0.022,5.135009765625,-3.913818359375,-2.832763671875
0.0225,5.054931640625,-5.235107421875,-1.591552734375
0.023,4.854736328125,-6.115966796875,-0.790771484375
0.0235,4.134033203125,-6.396240234375,0.130126953125
0.024,2.812744140625,-6.356201171875,1.291259765625
0.0245,1.291259765625,-6.556396484375,2.932861328125
0.025,0.010009765625,-6.716552734375,4.494384765625
0.0255,-0.910888671875,-7.076904296875,5.615478515625
0.026,-1.591552734375,-7.036865234375,6.456298828125
0.0265,-2.752685546875,-6.075927734375,6.776611328125
0.027,-4.154052734375,-4.634521484375,7.056884765625
0.0275,-5.395263671875,-3.153076171875,7.136962890625
0.028,-6.396240234375,-1.831787109375,7.177001953125
0.0285,-6.756591796875,-1.071044921875,7.177001953125
0.029,-6.596435546875,-0.270263671875,6.536376953125
0.0295,-6.115966796875,0.930908203125,5.255126953125
0.03,-5.755615234375,2.332275390625,3.773681640625
0.0305,-5.555419921875,3.853759765625,2.252197265625
0.031,-5.395263671875,4.974853515625,1.171142578125
0.0315,-5.074951171875,5.695556640625,0.330322265625
0.032,-4.033935546875,5.775634765625,-0.670654296875
0.0325,-2.632568359375,5.735595703125,-2.072021484375
0.033,-1.151123046875,5.935791015625,-3.753662109375
0.0335,0.130126953125,6.135986328125,-5.155029296875
0.034,0.770751953125,6.456298828125,-6.156005859375
0.0345,1.571533203125,6.216064453125,-6.836669921875
0.035,2.852783203125,4.974853515625,-7.076904296875
0.0355,4.214111328125,3.533447265625,-7.237060546875
0.036,5.455322265625,1.971923828125,-7.277099609375
0.0365,6.216064453125,0.810791015625,-7.317138671875
0.037,6.456298828125,0.090087890625,-7.116943359375
0.0375,6.095947265625,-0.830810546875,-6.276123046875
0.038,5.615478515625,-1.991943359375,-4.914794921875
0.0385,5.295166015625,-3.513427734375,-3.353271484375
0.039,5.094970703125,-4.954833984375,-1.951904296875
0.0395,4.974853515625,-5.915771484375,-0.990966796875
0.04,4.494384765625,-6.436279296875,-0.230224609375
0.0405,3.293212890625,-6.436279296875,0.930908203125
0.041,1.851806640625,-6.516357421875,2.412353515625
0.0415,0.290283203125,-6.676513671875,4.053955078125
0.042,-0.710693359375,-6.916748046875,5.335205078125
0.0425,-1.351318359375,-7.197021484375,6.256103515625
0.043,-2.272216796875,-6.516357421875,6.696533203125
0.0435,-3.673583984375,-5.155029296875,6.936767578125
0.044,-4.994873046875,-3.713623046875,7.096923828125
0.0445,-6.115966796875,-2.272216796875,7.177001953125
0.045,-6.676513671875,-1.351318359375,7.177001953125
0.0455,-6.716552734375,-0.630615234375,6.856689453125
0.046,-6.276123046875,0.450439453125,5.775634765625
0.0465,-5.915771484375,1.731689453125,4.414306640625
0.047,-5.635498046875,3.293212890625,2.852783203125
0.0475,-5.475341796875,4.614501953125,1.571533203125
0.048,-5.275146484375,5.455322265625,0.730712890625
0.0485,-4.514404296875,5.735595703125,-0.270263671875
0.049,-3.193115234375,5.735595703125,-1.431396484375
0.0495,-1.751708984375,5.895751953125,-3.113037109375
0.05,-0.390380859375,6.095947265625,-4.674560546875
0.0505,0.490478515625,6.416259765625,-5.795654296875
0.051,1.211181640625,6.456298828125,-6.636474609375
0.0515,2.292236328125,5.535400390625,-6.956787109375
0.052,3.693603515625,4.093994140625,-7.156982421875
0.0525,5.054931640625,2.532470703125,-7.317138671875
0.053,5.975830078125,1.251220703125,-7.317138671875
0.0535,6.416259765625,0.450439453125,-7.317138671875
0.054,6.256103515625,-0.470458984375,-6.676513671875
0.0545,5.775634765625,-1.511474609375,-5.435302734375
0.055,5.415283203125,-2.912841796875,-3.913818359375
0.0555,5.175048828125,-4.434326171875,-2.432373046875
0.056,5.014892578125,-5.595458984375,-1.351318359375
0.0565,4.734619140625,-6.276123046875,-0.630615234375
0.057,3.773681640625,-6.396240234375,0.450439453125
0.0575,2.372314453125,-6.396240234375,1.771728515625
0.058,0.850830078125,-6.516357421875,3.413330078125
0.0585,-0.390380859375,-6.756591796875,4.814697265625
0.059,-1.031005859375,-7.076904296875,5.855712890625
0.0595,-1.831787109375,-6.836669921875,6.536376953125
0.06,-3.072998046875,-5.635498046875,6.736572265625
0.0605,-4.394287109375,-4.234130859375,6.936767578125
0.061,-5.595458984375,-2.792724609375,7.056884765625
0.0615,-6.396240234375,-1.671630859375,7.056884765625
0.062,-6.596435546875,-0.990966796875,7.016845703125
0.0625,-6.316162109375,-0.150146484375,6.135986328125
0.063,-5.835693359375,1.051025390625,4.854736328125
0.0635,-5.595458984375,2.492431640625,3.453369140625
0.064,-5.435302734375,3.893798828125,2.052001953125
0.0645,-5.315185546875,4.854736328125,1.171142578125
0.065,-4.834716796875,5.415283203125,0.370361328125
0.0655,-3.833740234375,5.455322265625,-0.750732421875
0.066,-2.432373046875,5.615478515625,-2.112060546875
0.0665,-0.990966796875,5.775634765625,-3.753662109375
0.067,0.010009765625,6.095947265625,-5.034912109375
0.0675,0.610595703125,6.456298828125,-5.995849609375
0.068,1.491455078125,5.935791015625,-6.476318359375
0.0685,2.772705078125,4.654541015625,-6.716552734375
0.069,4.093994140625,3.333251953125,-6.916748046875
0.0695,5.255126953125,1.931884765625,-7.036865234375
0.07,5.895751953125,1.051025390625,-7.116943359375
0.0705,6.015869140625,0.330322265625,-6.916748046875
0.071,5.695556640625,-0.630615234375,-5.995849609375
0.0715,5.335205078125,-1.791748046875,-4.754638671875
0.072,5.094970703125,-3.273193359375,-3.273193359375
0.0725,5.054931640625,-4.634521484375,-2.112060546875
0.073,4.974853515625,-5.595458984375,-1.311279296875
0.0735,4.294189453125,-5.955810546875,-0.510498046875
0.074,3.173095703125,-5.995849609375,0.690673828125
0.0745,1.891845703125,-6.156005859375,2.212158203125
0.075,0.570556640625,-6.436279296875,3.773681640625
0.0755,-0.310302734375,-6.796630859375,4.934814453125
0.076,-0.990966796875,-6.996826171875,5.775634765625
0.0765,-1.991943359375,-6.236083984375,6.216064453125
0.077,-3.353271484375,-4.994873046875,6.456298828125
0.0775,-4.634521484375,-3.673583984375,6.696533203125
0.078,-5.635498046875,-2.432373046875,6.776611328125
0.0785,-6.156005859375,-1.671630859375,6.976806640625
0.079,-6.115966796875,-0.990966796875,6.456298828125
0.0795,-5.755615234375,0.130126953125,5.415283203125
0.08,-5.515380859375,1.371337890625,4.214111328125
0.0805,-5.395263671875,2.812744140625,2.852783203125
0.081,-5.315185546875,3.973876953125,1.851806640625
0.0815,-5.155029296875,4.774658203125,1.091064453125
0.082,-4.354248046875,5.054931640625,0.250244140625
0.0825,-3.193115234375,5.175048828125,-1.071044921875
0.083,-1.911865234375,5.455322265625,-2.592529296875
0.0835,-0.830810546875,5.735595703125,-3.993896484375
0.084,-0.190185546875,6.216064453125,-5.114990234375
0.0845,0.650634765625,6.135986328125,-5.835693359375
0.085,1.771728515625,5.175048828125,-6.156005859375
0.0855,3.052978515625,3.973876953125,-6.436279296875
0.086,4.334228515625,2.652587890625,-6.676513671875
0.0865,5.175048828125,1.611572265625,-6.796630859375
0.087,5.615478515625,0.970947265625,-6.876708984375
0.0875,5.455322265625,0.250244140625,-6.276123046875
0.088,5.135009765625,-0.870849609375,-5.275146484375
0.0885,4.974853515625,-2.232177734375,-3.993896484375
0.089,4.854736328125,-3.593505859375,-2.832763671875
0.0895,4.854736328125,-4.634521484375,-1.991943359375
0.09,4.654541015625,-5.275146484375,-1.271240234375
0.0905,3.773681640625,-5.475341796875,-0.310302734375
0.091,2.652587890625,-5.715576171875,1.010986328125
0.0915,1.411376953125,-5.995849609375,2.532470703125
0.092,0.530517578125,-6.396240234375,3.853759765625
0.0925,-0.190185546875,-6.876708984375,4.934814453125
0.093,-1.071044921875,-6.516357421875,5.495361328125
0.0935,-2.232177734375,-5.555419921875,5.855712890625
0.094,-3.513427734375,-4.394287109375,6.216064453125
0.0945,-4.674560546875,-3.193115234375,6.416259765625
0.095,-5.435302734375,-2.352294921875,6.696533203125
0.0955,-5.715576171875,-1.711669921875,6.576416015625
0.096,-5.555419921875,-0.910888671875,5.895751953125
0.0965,-5.315185546875,0.250244140625,4.894775390625
0.097,-5.235107421875,1.651611328125,3.693603515625
0.0975,-5.275146484375,2.932861328125,2.572509765625
0.098,-5.275146484375,3.973876953125,1.891845703125
0.0985,-4.834716796875,4.454345703125,1.091064453125
0.099,-3.873779296875,4.654541015625,0.050048828125
0.0995,-2.752685546875,5.054931640625,-1.391357421875
0.1,-1.631591796875,5.415283203125,-2.872802734375
0.1005,-0.950927734375,5.855712890625,-4.073974609375
0.101,-0.270263671875,6.135986328125,-4.994873046875
0.1015,0.810791015625,5.615478515625,-5.515380859375
0.102,2.052001953125,4.614501953125,-5.915771484375
0.1025,3.333251953125,3.413330078125,-6.236083984375
0.103,4.414306640625,2.292236328125,-6.476318359375
0.1035,5.054931640625,1.651611328125,-6.756591796875
0.104,5.094970703125,0.970947265625,-6.436279296875
0.1045,4.934814453125,0.050048828125,-5.635498046875
0.105,4.814697265625,-1.191162109375,-4.674560546875
0.1055,4.774658203125,-2.552490234375,-3.553466796875
0.106,4.814697265625,-3.713623046875,-2.632568359375
0.1065,4.854736328125,-4.554443359375,-1.951904296875
0.107,4.214111328125,-4.954833984375,-1.111083984375
0.1075,3.253173828125,-5.195068359375,0.090087890625
0.108,2.212158203125,-5.635498046875,1.451416015625
0.1085,1.251220703125,-6.115966796875,2.852783203125
0.109,0.610595703125,-6.556396484375,3.973876953125
0.1095,-0.270263671875,-6.596435546875,4.814697265625
0.11,-1.311279296875,-5.915771484375,5.255126953125
0.1105,-2.552490234375,-4.994873046875,5.695556640625
0.111,-3.793701171875,-3.833740234375,6.055908203125
0.1115,-4.754638671875,-2.872802734375,6.376220703125
0.112,-5.315185546875,-2.312255859375,6.536376953125
0.1125,-5.315185546875,-1.631591796875,6.135986328125
0.113,-5.155029296875,-0.670654296875,5.335205078125
0.1135,-5.155029296875,0.610595703125,4.334228515625
0.114,-5.195068359375,2.052001953125,3.253173828125
0.1145,-5.275146484375,3.133056640625,2.492431640625
0.115,-5.074951171875,3.853759765625,1.771728515625
0.1155,-4.394287109375,4.254150390625,0.850830078125
0.116,-3.473388671875,4.614501953125,-0.510498046875
0.1165,-2.352294921875,5.094970703125,-1.951904296875
0.117,-1.551513671875,5.575439453125,-3.233154296875
0.1175,-0.910888671875,6.095947265625,-4.354248046875
0.118,0.050048828125,5.895751953125,-5.034912109375
0.1185,1.251220703125,5.054931640625,-5.475341796875
0.119,2.532470703125,3.973876953125,-5.915771484375
0.1195,3.773681640625,2.852783203125,-6.276123046875
0.12,4.614501953125,2.052001953125,-6.596435546875
0.1205,4.974853515625,1.371337890625,-6.596435546875
0.121,4.894775390625,0.610595703125,-5.955810546875
0.1215,4.814697265625,-0.590576171875,-5.114990234375
0.122,4.814697265625,-1.871826171875,-3.993896484375
0.1225,4.854736328125,-3.193115234375,-3.072998046875
0.123,4.974853515625,-4.194091796875,-2.312255859375
0.1235,4.534423828125,-4.754638671875,-1.551513671875
0.124,3.693603515625,-5.074951171875,-0.510498046875
0.1245,2.652587890625,-5.475341796875,0.930908203125
0.125,1.571533203125,-5.915771484375,2.412353515625
0.1255,0.850830078125,-6.436279296875,3.653564453125
0.126,0.130126953125,-6.716552734375,4.614501953125
0.1265,-0.990966796875,-6.236083984375,5.175048828125
0.127,-2.272216796875,-5.275146484375,5.615478515625
0.1275,-3.553466796875,-4.073974609375,6.015869140625
0.128,-4.634521484375,-3.032958984375,6.336181640625
0.1285,-5.355224609375,-2.352294921875,6.616455078125
0.129,-5.435302734375,-1.631591796875,6.296142578125
0.1295,-5.275146484375,-0.750732421875,5.415283203125
0.13,-5.155029296875,0.570556640625,4.454345703125
0.1305,-5.195068359375,1.971923828125,3.293212890625
0.131,-5.235107421875,3.173095703125,2.412353515625
0.1315,-5.155029296875,4.053955078125,1.651611328125
0.132,-4.474365234375,4.414306640625,0.770751953125
0.1325,-3.513427734375,4.654541015625,-0.510498046875
0.133,-2.352294921875,5.054931640625,-1.951904296875
0.1335,-1.391357421875,5.535400390625,-3.313232421875
0.134,-0.710693359375,6.055908203125,-4.514404296875
0.1345,0.170166015625,6.015869140625,-5.275146484375
0.135,1.291259765625,5.135009765625,-5.715576171875
0.1355,2.612548828125,4.053955078125,-6.075927734375
0.136,3.893798828125,2.812744140625,-6.356201171875
0.1365,4.814697265625,1.771728515625,-6.596435546875
0.137,5.255126953125,1.131103515625,-6.716552734375
0.1375,5.094970703125,0.370361328125,-6.115966796875
0.138,4.934814453125,-0.670654296875,-5.155029296875
0.1385,4.814697265625,-1.991943359375,-3.993896484375
0.139,4.814697265625,-3.393310546875,-2.872802734375
0.1395,4.854736328125,-4.474365234375,-2.072021484375
0.14,4.614501953125,-5.114990234375,-1.271240234375
0.1405,3.693603515625,-5.315185546875,-0.310302734375
0.141,2.572509765625,-5.595458984375,1.091064453125
0.1415,1.411376953125,-5.955810546875,2.572509765625
0.142,0.570556640625,-6.436279296875,3.853759765625
0.1425,-0.190185546875,-6.836669921875,4.934814453125
0.143,-1.151123046875,-6.396240234375,5.495361328125
0.1435,-2.432373046875,-5.355224609375,5.895751953125
0.144,-3.713623046875,-4.114013671875,6.216064453125
0.1445,-4.834716796875,-2.952880859375,6.456298828125
0.145,-5.635498046875,-2.152099609375,6.696533203125
0.1455,-5.835693359375,-1.511474609375,6.536376953125
0.146,-5.555419921875,-0.590576171875,5.695556640625
0.1465,-5.355224609375,0.690673828125,4.574462890625
0.147,-5.275146484375,2.092041015625,3.333251953125
0.1475,-5.275146484375,3.453369140625,2.252197265625
0.148,-5.235107421875,4.334228515625,1.491455078125
0.1485,-4.634521484375,4.774658203125,0.650634765625
0.149,-3.553466796875,4.934814453125,-0.590576171875
0.1495,-2.352294921875,5.255126953125,-1.991943359375
0.15,-1.231201171875,5.615478515625,-3.513427734375
0.1505,-0.510498046875,6.055908203125,-4.674560546875
0.151,0.330322265625,6.216064453125,-5.595458984375
0.1515,1.411376953125,5.415283203125,-6.035888671875
0.152,2.772705078125,4.214111328125,-6.396240234375
0.1525,4.093994140625,2.852783203125,-6.596435546875
0.153,5.094970703125,1.691650390625,-6.796630859375
0.1535,5.615478515625,0.970947265625,-6.996826171875
0.154,5.575439453125,0.250244140625,-6.396240234375
0.1545,5.255126953125,-0.830810546875,-5.395263671875
0.155,5.094970703125,-2.192138671875,-4.114013671875
0.1555,4.974853515625,-3.673583984375,-2.832763671875
0.156,4.974853515625,-4.834716796875,-1.871826171875
0.1565,4.774658203125,-5.635498046875,-1.111083984375
0.157,3.853759765625,-5.755615234375,0.010009765625
0.1575,2.612548828125,-5.915771484375,1.291259765625
0.158,1.251220703125,-6.236083984375,2.892822265625
0.1585,0.210205078125,-6.596435546875,4.294189453125
0.159,-0.550537109375,-6.996826171875,5.415283203125
0.1595,-1.431396484375,-6.716552734375,6.095947265625
0.16,-2.752685546875,-5.515380859375,6.416259765625
0.1605,-4.154052734375,-4.234130859375,6.696533203125
0.161,-5.395263671875,-2.832763671875,6.896728515625
0.1615,-6.196044921875,-1.791748046875,6.976806640625
0.162,-6.436279296875,-1.031005859375,6.896728515625
0.1625,-6.115966796875,-0.150146484375,5.975830078125
0.163,-5.755615234375,1.211181640625,4.654541015625
0.1635,-5.515380859375,2.692626953125,3.173095703125
0.164,-5.435302734375,4.134033203125,1.891845703125
0.1645,-5.315185546875,5.094970703125,0.970947265625
0.165,-4.714599609375,5.495361328125,0.130126953125
0.1655,-3.473388671875,5.575439453125,-1.111083984375
0.166,-2.031982421875,5.735595703125,-2.672607421875
0.1665,-0.630615234375,5.935791015625,-4.314208984375
0.167,0.290283203125,6.256103515625,-5.475341796875
0.1675,0.970947265625,6.416259765625,-6.396240234375
0.168,2.052001953125,5.615478515625,-6.836669921875
0.1685,3.453369140625,4.134033203125,-7.076904296875
0.169,4.734619140625,2.652587890625,-7.116943359375
0.1695,5.735595703125,1.251220703125,-7.197021484375
0.17,6.256103515625,0.450439453125,-7.197021484375
0.1705,6.216064453125,-0.390380859375,-6.716552734375
0.171,5.735595703125,-1.391357421875,-5.515380859375
0.1715,5.375244140625,-2.712646484375,-4.073974609375
0.172,5.094970703125,-4.274169921875,-2.512451171875
0.1725,4.974853515625,-5.475341796875,-1.391357421875
0.173,4.734619140625,-6.236083984375,-0.630615234375
0.1735,3.853759765625,-6.396240234375,0.370361328125
0.174,2.492431640625,-6.396240234375,1.651611328125
0.1745,1.010986328125,-6.476318359375,3.253173828125
0.175,-0.350341796875,-6.716552734375,4.774658203125
0.1755,-1.031005859375,-7.036865234375,5.815673828125
0.176,-1.791748046875,-6.916748046875,6.536376953125
0.1765,-2.952880859375,-5.875732421875,6.816650390625
0.177,-4.354248046875,-4.434326171875,7.016845703125
0.1775,-5.595458984375,-2.912841796875,7.056884765625
0.178,-6.396240234375,-1.711669921875,7.096923828125
0.1785,-6.756591796875,-0.990966796875,7.096923828125
0.179,-6.516357421875,-0.150146484375,6.376220703125
0.1795,-6.035888671875,1.091064453125,5.014892578125
0.18,-5.715576171875,2.492431640625,3.533447265625
0.1805,-5.475341796875,3.973876953125,2.092041015625
0.181,-5.395263671875,5.054931640625,1.131103515625
0.1815,-4.994873046875,5.655517578125,0.330322265625
0.182,-3.913818359375,5.735595703125,-0.750732421875
0.1825,-2.512451171875,5.735595703125,-2.192138671875
0.183,-0.990966796875,5.935791015625,-3.833740234375
0.1835,0.130126953125,6.216064453125,-5.155029296875
0.184,0.730712890625,6.536376953125,-6.156005859375
0.1845,1.611572265625,6.095947265625,-6.756591796875
0.185,2.932861328125,4.774658203125,-6.996826171875
0.1855,4.214111328125,3.333251953125,-7.197021484375
0.186,5.495361328125,1.891845703125,-7.197021484375
0.1865,6.135986328125,0.890869140625,-7.237060546875
0.187,6.376220703125,0.130126953125,-7.076904296875
0.1875,5.975830078125,-0.830810546875,-6.115966796875
0.188,5.575439453125,-2.031982421875,-4.794677734375
