wavelength,x,y,z
0.0,-3.18310546875,21.68115234375,-18.83837890625
0.0005,-7.90771484375,22.44189453125,-14.83447265625
0.001,-12.95263671875,23.84326171875,-11.35107421875
0.0015,-16.31591796875,23.08251953125,-7.30712890625
0.002,-19.47900390625,22.28173828125,-3.34326171875
0.0025,-21.28076171875,19.91943359375,0.94091796875
0.003,-23.80322265625,17.67724609375,5.74560546875
0.0035,-24.04345703125,13.55322265625,10.10986328125
0.004,-24.36376953125,9.54931640625,14.51416015625
0.0045,-24.04345703125,6.70654296875,17.03662109375
0.005,-21.88134765625,1.70166015625,19.91943359375
0.0055,-19.75927734375,-2.54248046875,22.00146484375
0.006,-16.51611328125,-7.38720703125,23.60302734375
0.0065,-12.87255859375,-12.23193359375,24.84423828125
0.007,-8.18798828125,-15.95556640625,23.72314453125
0.0075,-4.86474609375,-18.43798828125,23.00244140625
0.008,0.58056640625,-20.56005859375,19.95947265625
0.0085,5.10498046875,-23.04248046875,17.83740234375
0.009,10.06982421875,-23.16259765625,13.07275390625
0.0095,14.59423828125,-24.12353515625,9.66943359375
0.01,17.75732421875,-23.32275390625,5.74560546875
0.0105,20.72021484375,-21.84130859375,1.30126953125
0.011,22.48193359375,-19.35888671875,-3.06298828125
0.0115,24.60400390625,-16.67626953125,-7.86767578125
0.012,24.64404296875,-12.51220703125,-12.11181640625
0.0125,24.48388671875,-8.46826171875,-16.07568359375
0.013,23.84326171875,-5.62548828125,-18.27783203125
0.0135,21.40087890625,-0.50048828125,-21.04052734375
0.014,19.23876953125,3.98388671875,-23.32275390625
0.0145,14.99462890625,9.02880859375,-24.04345703125
0.015,11.75146484375,13.47314453125,-25.28466796875
0.0155,7.02685546875,16.83642578125,-23.88330078125
0.016,3.14306640625,19.15869140625,-22.52197265625
0.0165,-1.78173828125,21.24072265625,-19.67919921875
0.017,-6.86669921875,23.60302734375,-17.11669921875
0.0175,-11.59130859375,23.40283203125,-12.23193359375
0.018,-15.79541015625,24.04345703125,-8.70849609375
0.0185,-18.51806640625,23.12255859375,-5.14501953125
0.019,-21.32080078125,21.28076171875,-0.50048828125
0.0195,-23.08251953125,18.75830078125,3.86376953125
0.02,-24.48388671875,15.27490234375,8.82861328125
0.0205,-24.84423828125,11.55126953125,12.95263671875
0.021,-24.28369140625,7.26708984375,16.71630859375
0.0215,-23.32275390625,4.22412109375,18.79833984375
0.022,-20.84033203125,-0.90087890625,21.44091796875
0.0225,-18.55810546875,-5.62548828125,23.88330078125
0.023,-13.79345703125,-10.55029296875,24.00341796875
0.0235,-10.75048828125,-14.67431640625,25.04443359375
0.024,-6.10595703125,-17.55712890625,23.56298828125
0.0245,-1.66162109375,-20.11962890625,21.48095703125
0.025,2.86279296875,-21.84130859375,18.83837890625
0.0255,8.50830078125,-23.96337890625,15.43505859375
0.026,12.83251953125,-23.68310546875,10.95068359375
0.0265,17.03662109375,-24.04345703125,7.10693359375
0.027,19.47900390625,-22.76220703125,3.50341796875
0.0275,22.28173828125,-20.76025390625,-1.42138671875
0.028,24.00341796875,-18.07763671875,-5.82568359375
0.0285,24.84423828125,-13.95361328125,-10.83056640625
0.029,25.24462890625,-10.63037109375,-14.67431640625
0.0295,24.24365234375,-6.18603515625,-18.19775390625
0.03,22.72216796875,-2.58251953125,-20.23974609375
0.0305,20.39990234375,2.18212890625,-22.64208984375
0.031,17.35693359375,7.66748046875,-25.04443359375
0.0315,12.35205078125,12.35205078125,-24.76416015625
0.032,9.26904296875,16.07568359375,-25.56494140625
0.0325,4.50439453125,18.87841796875,-23.40283203125
0.033,-0.58056640625,21.52099609375,-21.16064453125
0.0335,-4.82470703125,22.92236328125,-18.43798828125
0.034,-10.91064453125,24.80419921875,-14.23388671875
0.0345,-14.79443359375,24.28369140625,-9.94970703125
0.035,-18.87841796875,24.28369140625,-5.94580078125
0.0355,-20.96044921875,22.40185546875,-1.98193359375
0.036,-23.64306640625,20.19970703125,2.98291015625
0.0365,-24.92431640625,16.91650390625,7.66748046875
0.037,-25.40478515625,12.35205078125,12.71240234375
0.0375,-25.64501953125,9.18896484375,16.19580078125
0.038,-24.16357421875,4.34423828125,19.55908203125
0.0385,-22.16162109375,0.30029296875,21.68115234375
0.039,-19.83935546875,-4.34423828125,23.84326171875
0.0395,-16.03564453125,-10.10986328125,25.80517578125
0.04,-11.07080078125,-14.43408203125,25.12451171875
0.0405,-7.74755859375,-17.99755859375,25.40478515625
0.041,-2.58251953125,-20.35986328125,22.60205078125
0.0415,2.42236328125,-22.88232421875,20.31982421875
0.042,6.90673828125,-23.84326171875,16.87646484375
0.0425,12.87255859375,-25.32470703125,12.51220703125
0.043,16.51611328125,-24.60400390625,8.26806640625
0.0435,20.35986328125,-24.08349609375,3.90380859375
0.044,22.40185546875,-21.76123046875,-0.46044921875
0.0445,24.92431640625,-19.55908203125,-5.26513671875
0.045,25.64501953125,-15.67529296875,-9.94970703125
0.0455,25.76513671875,-11.07080078125,-14.71435546875
0.046,25.88525390625,-8.14794921875,-17.79736328125
0.0465,23.72314453125,-2.98291015625,-20.84033203125
0.047,21.60107421875,1.30126953125,-22.96240234375
0.0475,18.79833984375,5.90576171875,-24.76416015625
0.048,14.75439453125,11.71142578125,-26.36572265625
0.0485,9.62939453125,15.67529296875,-25.32470703125
0.049,6.14599609375,18.99853515625,-25.24462890625
0.0495,0.94091796875,21.12060546875,-22.12158203125
0.05,-4.02392578125,23.68310546875,-19.95947265625
0.0505,-8.82861328125,24.16357421875,-15.67529296875
0.051,-14.27392578125,25.36474609375,-11.51123046875
0.0515,-17.67724609375,24.68408203125,-7.58740234375
0.052,-21.08056640625,23.56298828125,-3.02294921875
0.0525,-22.92236328125,21.12060546875,1.34130859375
0.053,-25.28466796875,18.63818359375,6.22607421875
0.0535,-25.72509765625,14.39404296875,10.99072265625
0.054,-25.56494140625,9.74951171875,15.51513671875
0.0545,-25.56494140625,6.90673828125,18.39794921875
0.055,-23.04248046875,1.58154296875,21.20068359375
0.0555,-21.00048828125,-2.82275390625,23.52294921875
0.056,-17.47705078125,-7.66748046875,24.72412109375
0.0565,-13.63330078125,-12.99267578125,26.24560546875
0.057,-8.66845703125,-16.67626953125,25.00439453125
0.0575,-4.82470703125,-19.63916015625,24.20361328125
0.058,0.42041015625,-21.64111328125,21.08056640625
0.0585,5.30517578125,-24.28369140625,18.91845703125
0.059,10.43017578125,-24.32373046875,13.91357421875
0.0595,15.39501953125,-25.16455078125,9.90966796875
0.06,18.63818359375,-24.64404296875,6.22607421875
0.0605,21.84130859375,-22.92236328125,1.26123046875
0.061,23.80322265625,-20.35986328125,-3.34326171875
0.0615,25.76513671875,-17.51708984375,-8.18798828125
0.062,26.08544921875,-13.27294921875,-12.79248046875
0.0625,25.56494140625,-8.66845703125,-16.95654296875
0.063,25.12451171875,-5.74560546875,-19.51904296875
0.0635,22.44189453125,-0.30029296875,-22.20166015625
0.064,20.31982421875,4.46435546875,-24.84423828125
0.0645,15.75537109375,9.46923828125,-25.28466796875
0.065,12.15185546875,14.39404296875,-26.60595703125
0.0655,7.22705078125,17.91748046875,-25.20458984375
0.066,2.94287109375,20.76025390625,-23.72314453125
0.0665,-2.26220703125,22.64208984375,-20.60009765625
0.067,-7.50732421875,25.12451171875,-17.95751953125
0.0675,-12.55224609375,24.84423828125,-12.75244140625
0.068,-17.03662109375,25.28466796875,-8.70849609375
0.0685,-19.83935546875,24.40380859375,-5.14501953125
0.069,-22.88232421875,22.40185546875,0.02001953125
0.0695,-24.84423828125,19.59912109375,4.78466796875
0.07,-26.04541015625,15.83544921875,9.82958984375
0.0705,-26.44580078125,11.83154296875,14.23388671875
0.071,-25.56494140625,7.10693359375,18.19775390625
0.0715,-24.60400390625,3.86376953125,20.47998046875
0.072,-21.76123046875,-1.62158203125,23.08251953125
0.0725,-19.39892578125,-6.70654296875,25.76513671875
0.073,-14.11376953125,-11.75146484375,25.52490234375
0.0735,-10.75048828125,-16.15576171875,26.48583984375
0.074,-6.02587890625,-19.07861328125,24.76416015625
0.0745,-1.10107421875,-21.80126953125,22.64208984375
0.075,3.82373046875,-23.44287109375,19.55908203125
0.0755,9.62939453125,-25.60498046875,15.99560546875
0.076,14.11376953125,-25.12451171875,11.19091796875
0.0765,18.51806640625,-25.20458984375,6.90673828125
0.077,20.96044921875,-23.88330078125,3.18310546875
0.0775,23.80322265625,-21.64111328125,-2.06201171875
0.078,25.64501953125,-18.75830078125,-6.78662109375
0.0785,26.24560546875,-14.27392578125,-11.87158203125
0.079,26.60595703125,-10.83056640625,-15.83544921875
0.0795,25.28466796875,-6.02587890625,-19.31884765625
0.08,23.72314453125,-2.34228515625,-21.52099609375
0.0805,21.08056640625,2.66259765625,-23.80322265625
0.081,18.07763671875,8.30810546875,-26.44580078125
0.0815,12.67236328125,13.03271484375,-25.84521484375
0.082,9.26904296875,17.15673828125,-26.44580078125
0.0825,4.62451171875,19.67919921875,-24.36376953125
0.083,-0.62060546875,22.44189453125,-22.04150390625
0.0835,-5.10498046875,23.88330078125,-19.07861328125
0.084,-11.27099609375,25.68505859375,-14.75439453125
0.0845,-15.23486328125,25.12451171875,-10.39013671875
0.085,-19.47900390625,24.92431640625,-5.98583984375
0.0855,-21.52099609375,23.20263671875,-2.22216796875
0.086,-24.20361328125,20.88037109375,2.86279296875
0.0865,-25.84521484375,17.67724609375,7.82763671875
0.087,-25.96533203125,12.79248046875,12.79248046875
0.0875,-26.40576171875,9.62939453125,16.51611328125
0.088,-24.72412109375,4.74462890625,19.75927734375
0.0885,-22.92236328125,0.62060546875,22.04150390625
0.089,-20.39990234375,-4.06396484375,24.16357421875
0.0895,-16.79638671875,-10.02978515625,26.40576171875
0.09,-11.55126953125,-14.27392578125,25.48486328125
0.0905,-8.02783203125,-18.15771484375,25.84521484375
0.091,-3.18310546875,-20.31982421875,23.28271484375
0.0915,2.02197265625,-23.08251953125,21.00048828125
0.092,6.66650390625,-24.24365234375,17.55712890625
0.0925,12.71240234375,-25.68505859375,13.07275390625
0.093,16.43603515625,-25.12451171875,8.90869140625
0.0935,20.43994140625,-24.48388671875,4.22412109375
0.094,22.44189453125,-22.40185546875,0.14013671875
0.0945,25.00439453125,-20.11962890625,-4.78466796875
0.095,26.24560546875,-16.39599609375,-9.78955078125
0.0955,26.08544921875,-11.47119140625,-14.63427734375
0.096,26.32568359375,-8.50830078125,-17.95751953125
0.0965,24.20361328125,-3.34326171875,-21.00048828125
0.097,22.20166015625,1.02099609375,-23.36279296875
0.0975,19.35888671875,5.70556640625,-25.16455078125
0.098,15.19482421875,11.79150390625,-27.00634765625
0.0985,10.06982421875,15.83544921875,-25.92529296875
0.099,6.30615234375,19.47900390625,-25.80517578125
0.0995,1.14111328125,21.56103515625,-22.76220703125
0.1,-4.02392578125,24.36376953125,-20.64013671875
0.1005,-8.98876953125,25.00439453125,-16.31591796875
0.101,-14.75439453125,26.12548828125,-11.83154296875
0.1015,-18.15771484375,25.44482421875,-7.86767578125
0.102,-21.84130859375,24.20361328125,-2.86279296875
0.1025,-23.72314453125,21.76123046875,1.54150390625
0.103,-26.12548828125,19.19873046875,6.54638671875
0.1035,-26.84619140625,14.83447265625,11.59130859375
0.104,-26.44580078125,9.86962890625,16.31591796875
0.1045,-26.40576171875,6.78662109375,19.31884765625
0.105,-23.68310546875,1.26123046875,22.24169921875
0.1055,-21.68115234375,-3.30322265625,24.64404296875
0.106,-18.03759765625,-8.18798828125,25.88525390625
0.1065,-13.87353515625,-13.83349609375,27.40673828125
0.107,-8.62841796875,-17.59716796875,25.92529296875
0.1075,-4.50439453125,-20.80029296875,25.00439453125
0.108,0.98095703125,-22.76220703125,21.64111328125
0.1085,6.02587890625,-25.48486328125,19.43896484375
0.109,11.35107421875,-25.48486328125,14.23388671875
0.1095,16.47607421875,-26.24560546875,9.90966796875
0.11,19.71923828125,-25.48486328125,6.06591796875
0.1105,23.08251953125,-23.56298828125,0.70068359375
0.111,25.00439453125,-20.92041015625,-3.90380859375
0.1115,26.92626953125,-17.95751953125,-8.86865234375
0.112,27.20654296875,-13.59326171875,-13.63330078125
0.1125,26.44580078125,-8.66845703125,-17.87744140625
0.113,25.96533203125,-5.58544921875,-20.56005859375
0.1135,22.96240234375,0.18017578125,-23.28271484375
0.114,20.96044921875,4.86474609375,-25.88525390625
0.1145,16.15576171875,9.98974609375,-26.24560546875
0.115,12.39208984375,15.11474609375,-27.56689453125
0.1155,7.30712890625,18.55810546875,-25.92529296875
0.116,2.74267578125,21.56103515625,-24.36376953125
0.1165,-2.54248046875,23.36279296875,-21.08056640625
0.117,-7.78759765625,25.96533203125,-18.51806640625
0.1175,-12.95263671875,25.68505859375,-13.11279296875
0.118,-17.59716796875,25.92529296875,-8.86865234375
0.1185,-20.35986328125,25.08447265625,-5.34521484375
0.119,-23.40283203125,22.84228515625,0.10009765625
0.1195,-25.36474609375,20.11962890625,4.82470703125
0.12,-26.56591796875,16.35595703125,9.78955078125
0.1205,-27.04638671875,12.31201171875,14.39404296875
0.121,-25.92529296875,7.34716796875,18.27783203125
0.1215,-25.04443359375,4.02392578125,20.72021484375
0.122,-22.08154296875,-1.46142578125,23.32275390625
0.1225,-19.95947265625,-6.38623046875,26.08544921875
0.123,-14.63427734375,-11.47119140625,25.76513671875
0.1235,-11.11083984375,-16.03564453125,26.80615234375
0.124,-6.54638671875,-18.91845703125,25.12451171875
0.1245,-1.42138671875,-21.76123046875,22.96240234375
0.125,3.46337890625,-23.44287109375,19.87939453125
0.1255,9.10888671875,-25.64501953125,16.51611328125
0.126,13.79345703125,-25.40478515625,11.71142578125
0.1265,18.19775390625,-25.32470703125,7.30712890625
0.127,20.64013671875,-24.20361328125,3.82373046875
0.1275,23.64306640625,-21.80126953125,-1.62158203125
0.128,25.64501953125,-19.19873046875,-6.38623046875
0.1285,26.12548828125,-14.75439453125,-11.35107421875
0.129,26.76611328125,-11.39111328125,-15.43505859375
0.1295,25.32470703125,-6.62646484375,-18.91845703125
0.13,24.00341796875,-2.86279296875,-21.28076171875
0.1305,21.24072265625,2.26220703125,-23.56298828125
0.131,18.55810546875,7.74755859375,-26.32568359375
0.1315,13.15283203125,12.55224609375,-25.72509765625
0.132,9.62939453125,16.79638671875,-26.40576171875
0.1325,5.26513671875,19.19873046875,-24.52392578125
0.133,-0.18017578125,22.16162109375,-22.16162109375
0.1335,-4.78466796875,23.72314453125,-19.23876953125
0.134,-10.83056640625,25.48486328125,-15.07470703125
0.1345,-14.83447265625,25.28466796875,-10.91064453125
0.135,-19.03857421875,24.84423828125,-6.38623046875
0.1355,-21.12060546875,23.36279296875,-2.82275390625
0.136,-23.84326171875,21.00048828125,2.42236328125
0.1365,-25.76513671875,17.91748046875,7.42724609375
0.137,-25.76513671875,12.99267578125,12.31201171875
0.1375,-26.40576171875,9.94970703125,16.11572265625
0.138,-24.68408203125,5.22509765625,19.23876953125
0.1385,-23.04248046875,1.10107421875,21.76123046875
0.139,-20.43994140625,-3.70361328125,23.88330078125
0.1395,-17.03662109375,-9.58935546875,26.28564453125
0.14,-11.87158203125,-13.87353515625,25.44482421875
0.1405,-8.30810546875,-17.79736328125,25.76513671875
0.141,-3.82373046875,-19.83935546875,23.36279296875
0.1415,1.58154296875,-22.76220703125,21.08056640625
0.142,6.34619140625,-24.12353515625,17.71728515625
0.1425,12.31201171875,-25.44482421875,13.19287109375
0.143,15.99560546875,-25.16455078125,9.34912109375
0.1435,19.91943359375,-24.36376953125,4.62451171875
0.144,22.04150390625,-22.48193359375,0.66064453125
0.1445,24.60400390625,-20.23974609375,-4.26416015625
0.145,26.20556640625,-16.71630859375,-9.46923828125
0.1455,25.76513671875,-11.79150390625,-14.11376953125
0.146,26.24560546875,-8.90869140625,-17.47705078125
0.1465,24.04345703125,-3.86376953125,-20.31982421875
0.147,22.28173828125,0.62060546875,-22.92236328125
0.1475,19.35888671875,5.26513671875,-24.68408203125
0.148,15.35498046875,11.27099609375,-26.64599609375
0.1485,10.51025390625,15.15478515625,-25.68505859375
0.149,6.62646484375,18.87841796875,-25.48486328125
0.1495,1.90185546875,20.76025390625,-22.72216796875
0.15,-3.26318359375,23.56298828125,-20.47998046875
0.1505,-8.30810546875,24.48388671875,-16.47607421875
0.151,-13.87353515625,25.32470703125,-11.91162109375
0.1515,-17.23681640625,25.12451171875,-8.42822265625
0.152,-20.72021484375,23.64306640625,-3.46337890625
0.1525,-22.68212890625,21.52099609375,0.62060546875
0.153,-24.88427734375,19.03857421875,5.38525390625
0.1535,-26.08544921875,15.03466796875,10.59033203125
0.154,-25.40478515625,10.22998046875,14.87451171875
0.1545,-25.68505859375,7.30712890625,18.15771484375
0.155,-23.08251953125,2.30224609375,20.56005859375
0.1555,-21.40087890625,-2.18212890625,23.28271484375
0.156,-17.99755859375,-6.82666015625,24.52392578125
0.1565,-13.99365234375,-12.47216796875,26.12548828125
0.157,-9.46923828125,-15.91552734375,25.04443359375
0.1575,-5.18505859375,-19.19873046875,24.08349609375
0.158,-0.62060546875,-20.84033203125,21.24072265625
0.1585,4.22412109375,-23.52294921875,19.19873046875
0.159,9.62939453125,-24.16357421875,14.59423828125
0.1595,14.43408203125,-24.56396484375,10.22998046875
0.16,17.67724609375,-24.60400390625,7.14697265625
0.1605,20.76025390625,-22.68212890625,1.98193359375
0.161,22.92236328125,-20.60009765625,-2.26220703125
0.1615,24.52392578125,-17.87744140625,-6.66650390625
0.162,25.64501953125,-13.87353515625,-11.75146484375
0.1625,24.80419921875,-9.34912109375,-15.51513671875
0.163,24.72412109375,-6.34619140625,-18.51806640625
0.1635,22.08154296875,-1.58154296875,-20.64013671875
0.164,20.64013671875,2.94287109375,-23.64306640625
0.1645,16.39599609375,7.82763671875,-24.24365234375
0.165,12.51220703125,13.03271484375,-25.60498046875
0.1655,8.62841796875,16.15576171875,-24.80419921875
0.166,3.86376953125,19.19873046875,-23.12255859375
0.1665,-0.58056640625,20.96044921875,-20.56005859375
0.167,-5.30517578125,23.32275390625,-18.27783203125
0.1675,-10.71044921875,24.04345703125,-13.71337890625
0.168,-15.07470703125,23.88330078125,-9.26904296875
0.1685,-17.95751953125,23.92333984375,-6.50634765625
0.169,-20.76025390625,21.64111328125,-1.42138671875
0.1695,-23.12255859375,19.67919921875,2.98291015625
0.17,-24.04345703125,16.23583984375,7.38720703125
0.1705,-25.28466796875,12.55224609375,12.35205078125
0.171,-24.36376953125,8.30810546875,15.79541015625
0.1715,-23.84326171875,4.86474609375,18.71826171875
0.172,-21.20068359375,0.26025390625,20.76025390625
0.1725,-19.67919921875,-4.46435546875,23.84326171875
0.173,-14.95458984375,-9.30908203125,24.00341796875
0.1735,-11.11083984375,-14.07373046875,24.92431640625
0.174,-7.70751953125,-16.75634765625,24.16357421875
0.1745,-2.42236328125,-19.67919921875,21.80126953125
0.175,1.94189453125,-21.48095703125,19.35888671875
0.1755,7.10693359375,-23.32275390625,16.19580078125
0.176,11.99169921875,-24.08349609375,12.23193359375
0.1765,16.07568359375,-23.64306640625,7.62744140625
0.177,18.71826171875,-23.32275390625,4.66455078125
0.1775,21.40087890625,-20.88037109375,-0.50048828125
0.178,23.96337890625,-18.83837890625,-5.02490234375
0.1785,24.04345703125,-14.59423828125,-9.42919921875
0.179,25.24462890625,-11.39111328125,-13.95361328125
0.1795,24.12353515625,-7.34716796875,-16.83642578125
0.18,22.92236328125,-3.34326171875,-19.71923828125
0.1805,20.39990234375,1.18115234375,-21.64111328125
0.181,18.15771484375,6.30615234375,-24.48388671875
0.1815,13.43310546875,10.87060546875,-24.40380859375
0.182,9.42919921875,15.23486328125,-24.72412109375
0.1825,6.26611328125,17.43701171875,-23.72314453125
0.183,0.62060546875,20.31982421875,-21.12060546875
0.1835,-3.70361328125,22.16162109375,-18.71826171875
0.184,-9.10888671875,23.36279296875,-14.59423828125
0.1845,-13.31298828125,24.08349609375,-11.27099609375
0.185,-17.03662109375,23.24267578125,-6.74658203125
0.1855,-19.39892578125,22.36181640625,-3.54345703125
0.186,-21.72119140625,19.99951171875,1.30126953125
0.1865,-24.16357421875,17.59716796875,6.14599609375
0.187,-23.72314453125,12.99267578125,10.43017578125
0.1875,-24.76416015625,9.90966796875,14.59423828125
0.188,-23.52294921875,6.22607421875,16.99658203125
0.1885,-21.88134765625,1.78173828125,19.87939453125
0.189,-19.55908203125,-2.42236328125,21.76123046875
0.1895,-16.51611328125,-7.74755859375,24.00341796875
0.19,-12.47216796875,-11.83154296875,24.00341796875
0.1905,-8.26806640625,-15.75537109375,23.68310546875
0.191,-5.10498046875,-17.51708984375,22.36181640625
