wavelength,x,y,z
0.0,-19.37890625,9.9296875,8.48828125
0.0005,-19.2587890625,5.92578125,12.4521484375
0.001,-18.578125,2.72265625,14.974609375
0.0015,-16.9365234375,-1.0009765625,16.9365234375
0.002,-15.294921875,-4.32421875,18.6982421875
0.0025,-12.65234375,-7.126953125,18.9384765625
0.003,-10.009765625,-10.1298828125,19.458984375
0.0035,-5.4453125,-13.6533203125,18.6982421875
0.004,-1.041015625,-16.095703125,16.736328125
0.0045,2.482421875,-17.4970703125,15.0546875
0.005,5.5654296875,-18.658203125,13.2529296875
0.0055,8.5283203125,-18.8984375,10.7705078125
0.006,12.171875,-18.4580078125,6.8466796875
0.0065,14.89453125,-17.7373046875,3.443359375
0.007,17.13671875,-15.85546875,-0.640625
0.0075,18.6181640625,-13.853515625,-3.923828125
0.008,19.05859375,-11.37109375,-6.88671875
0.0085,19.5791015625,-9.0888671875,-9.8896484375
0.009,19.21875,-4.96484375,-13.5732421875
0.0095,17.9775390625,-1.3212890625,-15.9755859375
0.01,16.1357421875,2.1220703125,-17.537109375
0.0105,14.4541015625,5.28515625,-19.0185546875
0.011,11.5712890625,8.1279296875,-19.0185546875
0.0115,7.8876953125,11.53125,-18.978515625
0.012,4.0439453125,14.4541015625,-18.177734375
0.0125,-0.5205078125,16.65625,-16.0556640625
0.013,-3.7236328125,17.8974609375,-14.3740234375
0.0135,-6.7265625,18.5380859375,-12.2119140625
0.014,-9.529296875,18.8984375,-9.9296875
0.0145,-13.3330078125,18.177734375,-5.4853515625
0.015,-15.775390625,16.81640625,-1.8017578125
0.0155,-17.697265625,14.974609375,1.76171875
0.016,-18.9384765625,13.0927734375,4.96484375
0.0165,-19.1787109375,10.2900390625,7.9677734375
0.017,-19.37890625,7.3671875,11.1708984375
0.0175,-19.05859375,3.84375,14.333984375
0.018,-17.4169921875,0.0,16.6162109375
0.0185,-15.53515625,-3.2431640625,17.9375
0.019,-13.6533203125,-6.2060546875,19.0986328125
0.0195,-11.0908203125,-9.048828125,19.3388671875
0.02,-6.4462890625,-12.6923828125,18.578125
0.0205,-2.642578125,-15.21484375,17.4169921875
0.021,1.4814453125,-17.0966796875,15.4951171875
0.0215,4.5244140625,-18.2578125,13.7734375
0.022,7.607421875,-18.4580078125,11.130859375
0.0225,10.5302734375,-18.658203125,8.6083984375
0.023,14.013671875,-17.9775390625,4.6044921875
0.0235,16.3359375,-16.17578125,0.48046875
0.024,17.857421875,-14.4541015625,-2.72265625
0.0245,18.8984375,-12.4921875,-5.765625
0.025,19.138671875,-9.849609375,-8.6484375
0.0255,19.0185546875,-6.166015625,-12.2119140625
0.026,18.4580078125,-2.9228515625,-14.814453125
0.0265,16.736328125,0.9609375,-16.9765625
0.027,14.8544921875,4.00390625,-18.2177734375
0.0275,12.5322265625,6.966796875,-18.8583984375
0.028,9.8896484375,9.8896484375,-19.298828125
0.0285,5.0849609375,13.533203125,-18.337890625
0.029,1.041015625,15.7353515625,-16.65625
0.0295,-2.5224609375,17.3369140625,-14.9345703125
0.03,-5.6455078125,18.4580078125,-13.1728515625
0.0305,-8.6884765625,18.578125,-10.41015625
0.031,-12.01171875,18.41796875,-7.1669921875
0.0315,-15.0546875,17.5771484375,-3.4833984375
0.032,-17.296875,15.5751953125,0.9208984375
0.0325,-18.5380859375,13.7734375,3.923828125
0.033,-19.37890625,11.37109375,7.126953125
0.0335,-19.7392578125,8.728515625,10.08984375
0.034,-19.3388671875,4.6845703125,13.7333984375
0.0345,-18.177734375,1.201171875,16.095703125
0.035,-16.416015625,-2.5224609375,17.9775390625
0.0355,-14.494140625,-5.4453125,19.2587890625
0.036,-11.53125,-8.6083984375,19.458984375
0.0365,-8.328125,-11.8515625,19.5791015625
0.037,-3.7236328125,-15.134765625,18.4580078125
0.0375,0.8408203125,-17.1767578125,16.2158203125
0.038,3.9638671875,-18.4580078125,14.5341796875
0.0385,7.1669921875,-19.2587890625,12.412109375
0.039,10.2900390625,-19.21875,9.44921875
0.0395,13.8935546875,-18.578125,5.4453125
0.04,16.5361328125,-17.45703125,1.6015625
0.0405,18.6181640625,-15.375,-2.5625
0.041,19.5390625,-13.29296875,-5.525390625
0.0415,20.0595703125,-10.41015625,-8.9287109375
0.042,20.1796875,-7.287109375,-12.091796875
0.0425,19.4990234375,-3.4833984375,-15.4150390625
0.043,17.7373046875,0.560546875,-17.697265625
0.0435,15.85546875,3.9638671875,-18.978515625
0.044,13.693359375,7.046875,-20.0595703125
0.0445,10.3701171875,10.169921875,-19.939453125
0.045,6.24609375,13.5732421875,-19.5390625
0.0455,1.9619140625,16.3759765625,-18.2177734375
0.046,-2.642578125,18.2578125,-15.7353515625
0.0465,-5.525390625,19.0986328125,-13.93359375
0.047,-8.9287109375,19.619140625,-11.3310546875
0.0475,-12.0517578125,19.4990234375,-8.0078125
0.048,-15.455078125,18.5380859375,-3.923828125
0.0485,-17.77734375,16.6962890625,0.240234375
0.049,-19.5390625,14.654296875,3.9638671875
0.0495,-20.259765625,12.2919921875,6.966796875
0.05,-20.5,9.2490234375,10.330078125
0.0505,-20.2998046875,5.685546875,13.693359375
0.051,-19.4990234375,1.921875,16.576171875
0.0515,-17.3369140625,-2.2822265625,18.578125
0.052,-15.3349609375,-5.28515625,19.69921875
0.0525,-12.9326171875,-8.3681640625,20.5
0.053,-9.369140625,-11.611328125,20.33984375
0.0535,-4.8046875,-14.8544921875,19.2587890625
0.054,-0.5205078125,-17.2568359375,17.4970703125
0.0545,3.68359375,-18.9384765625,15.375
0.055,6.5263671875,-19.6591796875,13.212890625
0.0555,9.7294921875,-19.8193359375,10.5302734375
0.056,13.2529296875,-19.4990234375,6.8466796875
0.0565,16.2958984375,-18.337890625,2.72265625
0.057,18.3779296875,-16.2158203125,-1.4814453125
0.0575,19.779296875,-14.333984375,-4.8046875
0.058,20.419921875,-11.69140625,-7.9677734375
0.0585,20.5,-8.408203125,-11.291015625
0.059,19.9794921875,-4.8447265625,-14.654296875
0.0595,18.818359375,-0.9609375,-17.0966796875
0.06,16.6962890625,3.1630859375,-19.0185546875
0.0605,14.4541015625,6.0458984375,-19.779296875
0.061,11.8515625,9.12890625,-20.3798828125
0.0615,7.9677734375,12.6923828125,-20.1796875
0.062,3.443359375,15.6953125,-18.9384765625
0.0625,-1.0009765625,17.697265625,-16.736328125
0.063,-4.564453125,19.21875,-15.0546875
0.0635,-7.6875,19.7392578125,-12.5322265625
0.064,-10.890625,19.8193359375,-9.5693359375
0.0645,-14.4140625,19.2587890625,-5.6455078125
0.065,-17.2568359375,17.77734375,-1.4013671875
0.0655,-19.21875,15.53515625,2.802734375
0.066,-20.2197265625,13.4130859375,5.8857421875
0.0665,-20.900390625,10.6904296875,9.2490234375
0.067,-20.8603515625,7.0068359375,12.892578125
0.0675,-20.2197265625,3.2431640625,15.9755859375
0.068,-18.5380859375,-0.6806640625,18.2177734375
0.0685,-16.5361328125,-4.564453125,20.1796875
0.069,-13.9736328125,-7.52734375,20.6201171875
0.0695,-10.970703125,-10.6904296875,20.98046875
0.07,-6.5263671875,-14.4140625,20.419921875
0.0705,-1.76171875,-17.3369140625,18.73828125
0.071,2.6025390625,-19.0185546875,16.416015625
0.0715,5.92578125,-20.2197265625,14.4541015625
0.072,9.2490234375,-20.580078125,11.69140625
0.0725,12.8125,-20.33984375,8.0078125
0.073,16.0556640625,-19.5791015625,4.1240234375
0.0735,18.6982421875,-17.6171875,-0.4404296875
0.074,20.5,-15.3349609375,-4.484375
0.0745,21.1005859375,-12.732421875,-7.5673828125
0.075,21.5810546875,-9.9296875,-10.810546875
0.0755,21.1806640625,-5.6455078125,-14.7744140625
0.076,20.1796875,-1.8017578125,-17.5771484375
0.0765,17.9375,2.2822265625,-19.37890625
0.077,15.9755859375,5.8857421875,-21.060546875
0.0775,12.892578125,9.0087890625,-21.30078125
0.078,9.2890625,12.4521484375,-21.220703125
0.0785,4.884765625,15.8154296875,-20.419921875
0.079,0.0,18.41796875,-18.337890625
0.0795,-4.2841796875,19.9794921875,-15.9755859375
0.08,-7.3671875,20.7001953125,-13.7734375
0.0805,-10.73046875,21.0205078125,-10.9306640625
0.081,-14.654296875,20.259765625,-6.40625
0.0815,-17.4970703125,19.138671875,-2.5625
0.082,-19.7392578125,16.896484375,1.921875
0.0825,-21.380859375,14.6943359375,5.7255859375
0.083,-21.62109375,11.6513671875,8.9287109375
0.0835,-21.94140625,8.568359375,12.3720703125
0.084,-21.3408203125,4.32421875,15.9755859375
0.0845,-19.8994140625,0.240234375,18.6982421875
0.085,-17.45703125,-3.763671875,20.259765625
0.0855,-15.4150390625,-7.046875,21.4609375
0.086,-12.2919921875,-10.25,21.78125
0.0865,-7.767578125,-14.013671875,21.1806640625
0.087,-3.5634765625,-16.8564453125,19.9794921875
0.0875,1.361328125,-19.1787109375,17.6572265625
0.088,5.28515625,-20.6201171875,15.455078125
0.0885,8.408203125,-20.8203125,12.732421875
0.089,11.611328125,-21.140625,9.9697265625
0.0895,15.6552734375,-20.259765625,5.2451171875
0.09,18.2978515625,-18.5380859375,1.0009765625
0.0905,20.1796875,-16.2958984375,-3.0830078125
0.091,21.4609375,-14.09375,-6.56640625
0.0915,21.62109375,-10.890625,-9.8896484375
0.092,21.62109375,-7.20703125,-13.5732421875
0.0925,20.900390625,-3.5234375,-16.576171875
0.093,19.0986328125,0.9208984375,-19.0986328125
0.0935,16.736328125,4.724609375,-20.66015625
0.094,14.1337890625,7.8076171875,-21.220703125
0.0945,11.37109375,10.9306640625,-21.7412109375
0.095,6.0859375,15.0546875,-20.7802734375
0.0955,1.921875,17.5771484375,-19.2587890625
0.096,-2.642578125,19.4990234375,-16.9765625
0.0965,-6.2861328125,20.8203125,-14.9345703125
0.097,-9.689453125,20.7802734375,-11.771484375
0.0975,-12.97265625,20.8603515625,-8.6484375
0.098,-16.65625,19.9794921875,-4.2041015625
0.0985,-19.298828125,17.857421875,0.6005859375
0.099,-20.8603515625,15.5751953125,4.404296875
0.0995,-21.861328125,13.052734375,7.8076171875
0.1,-22.1416015625,10.0498046875,11.0908203125
0.1005,-21.78125,5.5654296875,15.21484375
0.101,-20.7802734375,1.921875,17.8974609375
0.1015,-18.658203125,-2.40234375,20.1396484375
0.102,-16.416015625,-6.1259765625,21.6611328125
0.1025,-13.3330078125,-9.4091796875,21.8212890625
0.103,-10.25,-12.6123046875,22.1416015625
0.1035,-4.8447265625,-16.6162109375,20.98046875
0.104,0.1201171875,-19.05859375,18.6982421875
0.1045,4.1240234375,-20.580078125,16.416015625
0.105,7.6875,-21.701171875,14.173828125
0.1055,11.291015625,-21.5810546875,10.810546875
0.106,14.974609375,-21.0205078125,6.6865234375
0.1065,18.177734375,-19.8994140625,2.5625
0.107,20.580078125,-17.45703125,-2.3623046875
0.1075,21.9013671875,-15.0947265625,-5.9658203125
0.108,22.421875,-12.01171875,-9.5693359375
0.1085,22.662109375,-9.048828125,-12.732421875
0.109,21.9013671875,-4.2041015625,-16.8564453125
0.1095,20.2998046875,-0.16015625,-19.21875
0.11,17.9775390625,3.923828125,-21.1005859375
0.1105,15.6552734375,7.607421875,-22.4619140625
0.111,11.8115234375,11.05078125,-22.3017578125
0.1115,8.087890625,14.57421875,-22.181640625
0.112,3.1630859375,17.9375,-20.8603515625
0.1125,-2.2021484375,20.2197265625,-18.1376953125
0.113,-5.8056640625,21.3408203125,-15.8955078125
0.1135,-9.369140625,22.0615234375,-13.2529296875
0.114,-12.8125,22.0615234375,-9.8896484375
0.1145,-16.8564453125,20.9404296875,-5.0849609375
0.115,-19.619140625,19.2587890625,-0.640625
0.1155,-21.7412109375,16.736328125,3.9638671875
0.116,-22.7822265625,14.2138671875,7.52734375
0.1165,-22.982421875,10.5703125,11.37109375
0.117,-22.982421875,7.287109375,14.6943359375
0.1175,-22.1015625,2.72265625,18.337890625
0.118,-19.8994140625,-1.921875,20.7001953125
0.1185,-17.4169921875,-5.685546875,22.0615234375
0.119,-15.0146484375,-9.0888671875,23.1826171875
0.1195,-11.05078125,-12.5322265625,22.8623046875
0.12,-6.24609375,-16.3359375,21.9814453125
0.1205,-1.521484375,-19.1787109375,20.33984375
0.121,3.6435546875,-21.220703125,17.5771484375
0.1215,7.126953125,-22.1015625,15.0947265625
0.122,10.810546875,-22.26171875,11.9716796875
0.1225,14.173828125,-22.1416015625,8.5283203125
0.123,17.9775390625,-20.8203125,3.603515625
0.1235,20.4599609375,-18.5380859375,-1.1611328125
0.124,22.1416015625,-16.095703125,-5.1650390625
0.1245,22.982421875,-13.4130859375,-8.6484375
0.125,22.90234375,-9.689453125,-12.251953125
0.1255,22.4619140625,-5.8056640625,-15.85546875
0.126,21.4609375,-1.8017578125,-18.8583984375
0.1265,19.0986328125,3.04296875,-21.1005859375
0.127,16.3759765625,6.4462890625,-22.0615234375
0.1275,13.5732421875,9.849609375,-22.7822265625
0.128,9.849609375,13.29296875,-22.58203125
0.1285,4.484375,16.9765625,-21.220703125
0.129,0.0,19.3388671875,-19.1787109375
0.1295,-4.564453125,21.1005859375,-16.7763671875
0.13,-8.0078125,21.78125,-14.4541015625
0.1305,-11.5712890625,21.78125,-10.8505859375
0.131,-15.0546875,21.4208984375,-7.126953125
0.1315,-18.41796875,20.01953125,-2.5625
0.132,-20.7001953125,17.45703125,2.322265625
0.1325,-21.9814453125,15.0947265625,5.845703125
0.133,-22.7421875,12.2919921875,9.44921875
0.1335,-22.7021484375,8.6884765625,12.97265625
0.134,-21.9814453125,4.404296875,16.65625
0.1345,-20.6201171875,0.4404296875,19.1787109375
0.135,-18.2978515625,-4.00390625,21.30078125
0.1355,-15.7353515625,-7.3271484375,22.1416015625
0.136,-12.5322265625,-10.73046875,22.421875
0.1365,-8.6884765625,-14.2939453125,22.26171875
0.137,-3.36328125,-17.77734375,20.7001953125
0.1375,1.521484375,-19.8994140625,18.177734375
0.138,5.28515625,-21.1806640625,16.015625
0.1385,8.80859375,-21.9013671875,13.4130859375
0.139,12.33203125,-21.6611328125,9.8896484375
0.1395,15.935546875,-20.98046875,5.7255859375
0.14,18.8984375,-19.37890625,1.28125
0.1405,21.140625,-16.81640625,-3.5634765625
0.141,22.0615234375,-14.3740234375,-6.7666015625
0.1415,22.58203125,-11.291015625,-10.4501953125
0.142,22.4619140625,-7.5673828125,-14.09375
0.1425,21.62109375,-3.36328125,-17.4970703125
0.143,19.6591796875,0.9208984375,-19.69921875
0.1435,17.4970703125,4.9248046875,-21.5810546875
0.144,14.734375,8.2880859375,-22.26171875
0.1445,11.2109375,11.6513671875,-22.181640625
0.145,6.8466796875,15.294921875,-21.78125
0.1455,1.921875,18.3779296875,-20.1396484375
0.146,-3.0830078125,20.33984375,-17.4169921875
0.1465,-6.40625,21.30078125,-15.294921875
0.147,-10.009765625,21.8212890625,-12.4521484375
0.1475,-13.61328125,21.4609375,-8.6083984375
0.148,-17.0966796875,20.4599609375,-4.32421875
0.1485,-19.7392578125,18.498046875,0.3203125
0.149,-21.78125,16.015625,4.8046875
0.1495,-22.3818359375,13.3330078125,8.0078125
0.15,-22.822265625,10.0498046875,11.6513671875
0.1505,-22.4619140625,6.005859375,15.4951171875
0.151,-21.5009765625,1.841796875,18.6181640625
0.1515,-19.0986328125,-2.5625,20.6201171875
0.152,-16.9365234375,-6.1259765625,22.0615234375
0.1525,-14.0537109375,-9.5693359375,22.7421875
0.153,-10.009765625,-13.1728515625,22.3818359375
0.1535,-5.4052734375,-16.5361328125,21.380859375
0.154,-0.400390625,-19.0986328125,19.4189453125
0.1545,4.32421875,-21.0205078125,16.736328125
0.155,7.4072265625,-21.5009765625,14.3740234375
0.1555,11.0107421875,-21.9013671875,11.37109375
0.156,14.814453125,-21.30078125,7.046875
0.1565,17.9375,-19.9794921875,2.802734375
0.157,20.1796875,-17.697265625,-1.76171875
0.1575,21.9013671875,-15.4150390625,-5.6455078125
0.158,22.26171875,-12.4521484375,-8.96875
0.1585,22.4619140625,-8.96875,-12.65234375
0.159,21.9013671875,-4.9248046875,-16.095703125
0.1595,20.5400390625,-0.7607421875,-18.9384765625
0.16,18.0576171875,3.6435546875,-20.8203125
0.1605,15.6953125,6.6865234375,-21.7412109375
0.161,12.7724609375,10.1298828125,-22.3017578125
0.1615,8.2880859375,13.9736328125,-21.78125
0.162,3.8837890625,16.9765625,-20.5
0.1625,-1.0009765625,19.21875,-18.2578125
0.163,-5.125,20.8603515625,-16.015625
0.1635,-8.248046875,21.1005859375,-13.3330078125
0.164,-11.611328125,21.30078125,-10.41015625
0.1645,-15.455078125,20.6201171875,-5.9658203125
0.165,-18.2978515625,18.978515625,-1.6015625
0.1655,-20.259765625,16.6162109375,2.7626953125
0.166,-21.5810546875,14.3740234375,6.2060546875
0.1665,-22.021484375,11.37109375,9.609375
0.167,-22.021484375,7.4873046875,13.4931640625
0.1675,-21.30078125,3.763671875,16.5361328125
0.168,-19.69921875,-0.400390625,19.05859375
0.1685,-17.376953125,-4.5244140625,20.98046875
0.169,-14.814453125,-7.5673828125,21.4609375
0.1695,-12.01171875,-10.7705078125,21.9013671875
0.17,-7.126953125,-14.7744140625,21.2607421875
0.1705,-2.5224609375,-17.45703125,19.5791015625
0.171,1.921875,-19.2587890625,17.296875
0.1715,5.60546875,-20.7802734375,15.3349609375
0.172,8.888671875,-20.900390625,12.412109375
0.1725,12.2919921875,-20.8203125,9.0087890625
0.173,15.775390625,-20.099609375,5.044921875
0.1735,18.498046875,-18.1376953125,0.48046875
0.174,20.33984375,-15.8955078125,-3.7236328125
0.1745,21.1005859375,-13.453125,-6.8466796875
0.175,21.6611328125,-10.650390625,-10.2099609375
0.1755,21.380859375,-6.3662109375,-14.173828125
0.176,20.4599609375,-2.7626953125,-16.8564453125
0.1765,18.498046875,1.28125,-18.9384765625
0.177,16.49609375,5.0048828125,-20.8203125
0.1775,13.453125,8.1279296875,-20.9404296875
0.178,10.5302734375,11.3310546875,-21.220703125
0.1785,5.8056640625,15.0546875,-20.5
0.179,1.0810546875,17.6171875,-18.5380859375
0.1795,-3.0830078125,19.21875,-16.2958984375
0.18,-6.326171875,20.259765625,-14.2939453125
0.1805,-9.6494140625,20.5400390625,-11.4912109375
0.181,-13.373046875,20.01953125,-7.3671875
0.1815,-16.2158203125,19.1787109375,-3.68359375
0.182,-18.6181640625,17.056640625,0.6806640625
0.1825,-20.419921875,14.9345703125,4.5244140625
0.183,-20.8203125,12.171875,7.6875
0.1835,-21.30078125,9.44921875,10.890625
0.184,-20.900390625,5.125,14.7744140625
0.1845,-19.69921875,1.28125,17.4169921875
0.185,-17.4970703125,-2.5224609375,19.05859375
0.1855,-15.6953125,-5.92578125,20.6201171875
0.186,-12.6923828125,-8.96875,20.8203125
0.1865,-8.8486328125,-12.4521484375,20.6201171875
0.187,-4.724609375,-15.455078125,19.69921875
0.1875,0.1201171875,-17.8173828125,17.4970703125
0.188,3.9638671875,-19.298828125,15.375
0.1885,6.88671875,-19.8193359375,13.1728515625
0.189,10.009765625,-20.2197265625,10.6904296875
0.1895,13.9736328125,-19.5390625,6.0859375
0.19,16.5361328125,-18.177734375,2.3623046875
0.1905,18.498046875,-16.17578125,-1.6015625
0.191,19.9794921875,-14.2138671875,-5.0048828125
0.1915,20.2197265625,-11.37109375,-8.087890625
0.192,20.4599609375,-8.2880859375,-11.451171875
0.1925,20.0595703125,-4.64453125,-14.6943359375
0.193,18.5380859375,-0.640625,-17.13671875
0.1935,16.4560546875,2.962890625,-18.6982421875
0.194,14.4140625,5.92578125,-19.6591796875
0.1945,11.8916015625,8.9287109375,-20.2197265625
0.195,7.20703125,12.7724609375,-19.5390625
0.1955,3.5234375,15.21484375,-18.4580078125
0.196,-0.80078125,17.216796875,-16.416015625
0.1965,-4.32421875,18.7783203125,-14.654296875
0.197,-7.20703125,18.9384765625,-12.1318359375
0.1975,-10.25,19.2587890625,-9.6494140625
0.198,-13.93359375,18.6982421875,-5.4853515625
0.1985,-16.3759765625,16.9765625,-1.4814453125
0.199,-18.0576171875,15.134765625,2.0419921875
0.1995,-19.298828125,13.2529296875,5.205078125
0.2,-19.7392578125,10.650390625,8.16796875
0.2005,-19.7392578125,6.8466796875,11.931640625
0.201,-19.138671875,3.68359375,14.57421875
0.2015,-17.6572265625,-0.2001953125,16.81640625
0.202,-15.85546875,-3.5634765625,18.5380859375
0.2025,-13.4931640625,-6.3662109375,19.0185546875
0.203,-11.1708984375,-9.2490234375,19.6591796875
0.2035,-6.3662109375,-13.0927734375,18.8984375
0.204,-2.2021484375,-15.4150390625,17.296875
0.2045,1.44140625,-17.056640625,15.53515625
0.205,4.6845703125,-18.5380859375,13.93359375
0.2055,7.6875,-18.658203125,11.3310546875
0.206,11.0107421875,-18.6181640625,8.0478515625
0.2065,14.09375,-18.09765625,4.6044921875
0.207,16.4560546875,-16.255859375,0.48046875
0.2075,18.0576171875,-14.494140625,-2.8828125
0.208,18.8583984375,-12.251953125,-5.845703125
0.2085,19.458984375,-9.9697265625,-8.7685546875
0.209,19.21875,-5.8857421875,-12.7724609375
0.2095,18.2578125,-2.5625,-15.0546875
0.21,16.6162109375,1.041015625,-16.896484375
0.2105,15.0146484375,4.2841796875,-18.578125
0.211,12.2119140625,7.126953125,-18.7783203125
0.2115,9.2890625,10.25,-19.0986328125
0.212,5.0849609375,13.61328125,-18.4580078125
0.2125,0.640625,15.85546875,-16.3759765625
0.213,-2.6025390625,17.2568359375,-14.814453125
0.2135,-5.7255859375,18.337890625,-13.0126953125
0.214,-8.6083984375,18.658203125,-10.5703125
0.2145,-12.3720703125,18.177734375,-6.4462890625
0.215,-14.974609375,17.2568359375,-3.0830078125
0.2155,-17.0166015625,15.4150390625,0.80078125
0.216,-18.5380859375,13.61328125,4.00390625
0.2165,-18.978515625,11.0107421875,7.046875
0.217,-19.458984375,8.408203125,10.08984375
0.2175,-19.21875,4.6044921875,13.6533203125
0.218,-17.7373046875,0.880859375,15.9755859375
0.2185,-16.015625,-2.40234375,17.45703125
