wavelength,x,y,z
0.0,4.814697265625,-4.634521484375,-1.831787109375
0.0005,4.334228515625,-5.195068359375,-0.990966796875
0.001,3.413330078125,-5.435302734375,0.090087890625
0.0015,2.252197265625,-5.755615234375,1.451416015625
0.002,1.211181640625,-6.115966796875,2.932861328125
0.0025,0.370361328125,-6.436279296875,4.053955078125
0.003,-0.390380859375,-6.636474609375,4.934814453125
0.0035,-1.351318359375,-6.115966796875,5.455322265625
0.004,-2.672607421875,-4.994873046875,5.855712890625
0.0045,-4.033935546875,-3.833740234375,6.256103515625
0.005,-4.994873046875,-2.632568359375,6.376220703125
0.0055,-5.555419921875,-1.871826171875,6.416259765625
0.006,-5.675537109375,-1.111083984375,6.095947265625
0.0065,-5.475341796875,-0.190185546875,5.255126953125
0.007,-5.395263671875,1.131103515625,4.214111328125
0.0075,-5.435302734375,2.532470703125,3.093017578125
0.008,-5.275146484375,3.653564453125,2.052001953125
0.0085,-5.074951171875,4.414306640625,1.291259765625
0.009,-4.394287109375,4.774658203125,0.410400390625
0.0095,-3.313232421875,4.974853515625,-0.950927734375
0.01,-2.152099609375,5.455322265625,-2.432373046875
0.0105,-1.031005859375,5.735595703125,-3.833740234375
0.011,-0.310302734375,6.015869140625,-4.834716796875
0.0115,0.570556640625,6.015869140625,-5.635498046875
0.012,1.771728515625,5.094970703125,-6.075927734375
0.0125,3.133056640625,3.853759765625,-6.436279296875
0.013,4.454345703125,2.532470703125,-6.716552734375
0.0135,5.255126953125,1.411376953125,-6.716552734375
0.014,5.615478515625,0.690673828125,-6.716552734375
0.0145,5.575439453125,-0.270263671875,-6.115966796875
0.015,5.295166015625,-1.351318359375,-4.994873046875
0.0155,5.255126953125,-2.752685546875,-3.793701171875
0.016,5.135009765625,-4.194091796875,-2.552490234375
0.0165,4.974853515625,-5.155029296875,-1.551513671875
0.017,4.534423828125,-5.795654296875,-0.790771484375
0.0175,3.533447265625,-5.995849609375,0.330322265625
0.018,2.252197265625,-6.115966796875,1.771728515625
0.0185,0.930908203125,-6.436279296875,3.493408203125
0.019,-0.190185546875,-6.676513671875,4.654541015625
0.0195,-0.870849609375,-6.836669921875,5.575439453125
0.02,-1.831787109375,-6.396240234375,6.135986328125
0.0205,-3.193115234375,-5.114990234375,6.456298828125
0.021,-4.554443359375,-3.793701171875,6.776611328125
0.0215,-5.675537109375,-2.392333984375,6.896728515625
0.022,-6.236083984375,-1.431396484375,6.776611328125
0.0225,-6.356201171875,-0.630615234375,6.416259765625
0.023,-6.075927734375,0.410400390625,5.535400390625
0.0235,-5.755615234375,1.731689453125,4.214111328125
0.024,-5.715576171875,3.213134765625,2.852783203125
0.0245,-5.435302734375,4.414306640625,1.731689453125
0.025,-5.114990234375,5.135009765625,0.770751953125
0.0255,-4.474365234375,5.455322265625,-0.230224609375
0.026,-3.193115234375,5.575439453125,-1.431396484375
0.0265,-1.791748046875,5.775634765625,-2.992919921875
0.027,-0.510498046875,6.055908203125,-4.514404296875
0.0275,0.410400390625,6.176025390625,-5.515380859375
0.028,1.131103515625,6.135986328125,-6.276123046875
0.0285,2.212158203125,5.295166015625,-6.716552734375
0.029,3.653564453125,3.853759765625,-6.916748046875
0.0295,4.934814453125,2.492431640625,-7.116943359375
0.03,5.735595703125,1.211181640625,-7.076904296875
0.0305,6.095947265625,0.330322265625,-6.916748046875
0.031,6.055908203125,-0.590576171875,-6.356201171875
0.0315,5.655517578125,-1.591552734375,-5.235107421875
0.032,5.415283203125,-2.912841796875,-3.873779296875
0.0325,5.255126953125,-4.474365234375,-2.512451171875
0.033,4.974853515625,-5.515380859375,-1.431396484375
0.0335,4.614501953125,-6.156005859375,-0.630615234375
0.034,3.733642578125,-6.276123046875,0.450439453125
0.0345,2.412353515625,-6.356201171875,1.731689453125
0.035,0.970947265625,-6.596435546875,3.413330078125
0.0355,-0.310302734375,-6.716552734375,4.734619140625
0.036,-0.990966796875,-6.916748046875,5.655517578125
0.0365,-1.751708984375,-6.716552734375,6.336181640625
0.037,-2.912841796875,-5.635498046875,6.576416015625
0.0375,-4.354248046875,-4.194091796875,6.896728515625
0.038,-5.595458984375,-2.832763671875,7.056884765625
0.0385,-6.276123046875,-1.631591796875,6.896728515625
0.039,-6.516357421875,-0.910888671875,6.736572265625
0.0395,-6.356201171875,0.050048828125,6.055908203125
0.04,-5.995849609375,1.251220703125,4.814697265625
0.0405,-5.755615234375,2.612548828125,3.493408203125
0.041,-5.635498046875,3.973876953125,2.172119140625
0.0415,-5.355224609375,4.934814453125,1.131103515625
0.042,-4.874755859375,5.495361328125,0.330322265625
0.0425,-3.833740234375,5.615478515625,-0.830810546875
0.043,-2.392333984375,5.775634765625,-2.272216796875
0.0435,-0.990966796875,6.055908203125,-3.993896484375
0.044,0.090087890625,6.176025390625,-5.114990234375
0.0445,0.770751953125,6.336181640625,-6.035888671875
0.045,1.651611328125,5.895751953125,-6.596435546875
0.0455,3.012939453125,4.574462890625,-6.876708984375
0.046,4.414306640625,3.173095703125,-7.116943359375
0.0465,5.495361328125,1.771728515625,-7.197021484375
0.047,6.095947265625,0.730712890625,-7.076904296875
0.0475,6.216064453125,-0.150146484375,-6.756591796875
0.048,5.895751953125,-1.111083984375,-5.835693359375
0.0485,5.575439453125,-2.392333984375,-4.514404296875
0.049,5.415283203125,-3.953857421875,-3.072998046875
0.0495,5.175048828125,-5.195068359375,-1.911865234375
0.05,4.854736328125,-5.955810546875,-0.950927734375
0.0505,4.254150390625,-6.356201171875,0.010009765625
0.051,3.012939453125,-6.396240234375,1.211181640625
0.0515,1.531494140625,-6.556396484375,2.812744140625
0.052,0.170166015625,-6.756591796875,4.454345703125
0.0525,-0.790771484375,-6.916748046875,5.455322265625
0.053,-1.471435546875,-6.916748046875,6.256103515625
0.0535,-2.552490234375,-6.115966796875,6.656494140625
0.054,-3.953857421875,-4.714599609375,6.896728515625
0.0545,-5.315185546875,-3.273193359375,7.136962890625
0.055,-6.236083984375,-1.951904296875,7.056884765625
0.0555,-6.596435546875,-1.031005859375,6.896728515625
0.056,-6.556396484375,-0.230224609375,6.416259765625
0.0565,-6.196044921875,0.930908203125,5.255126953125
0.057,-5.915771484375,2.332275390625,3.893798828125
0.0575,-5.795654296875,3.853759765625,2.452392578125
0.058,-5.435302734375,4.934814453125,1.291259765625
0.0585,-5.074951171875,5.615478515625,0.450439453125
0.059,-4.154052734375,5.815673828125,-0.630615234375
0.0595,-2.752685546875,5.855712890625,-1.991943359375
0.06,-1.311279296875,6.095947265625,-3.713623046875
0.0605,0.010009765625,6.256103515625,-5.074951171875
0.061,0.770751953125,6.376220703125,-5.995849609375
0.0615,1.531494140625,6.135986328125,-6.676513671875
0.062,2.692626953125,5.014892578125,-6.956787109375
0.0625,4.134033203125,3.533447265625,-7.156982421875
0.063,5.415283203125,2.052001953125,-7.317138671875
0.0635,6.095947265625,0.850830078125,-7.116943359375
0.064,6.296142578125,0.050048828125,-6.916748046875
0.0645,6.055908203125,-0.950927734375,-6.115966796875
0.065,5.655517578125,-2.072021484375,-4.914794921875
0.0655,5.415283203125,-3.513427734375,-3.553466796875
0.066,5.215087890625,-4.834716796875,-2.152099609375
0.0665,4.894775390625,-5.715576171875,-1.151123046875
0.067,4.494384765625,-6.276123046875,-0.350341796875
0.0675,3.413330078125,-6.316162109375,0.730712890625
0.068,1.971923828125,-6.396240234375,2.172119140625
0.0685,0.610595703125,-6.636474609375,3.813720703125
0.069,-0.590576171875,-6.716552734375,4.974853515625
0.0695,-1.151123046875,-6.876708984375,5.815673828125
0.07,-1.951904296875,-6.476318359375,6.376220703125
0.0705,-3.193115234375,-5.275146484375,6.576416015625
0.071,-4.514404296875,-3.913818359375,6.856689453125
0.0715,-5.635498046875,-2.592529296875,6.936767578125
0.072,-6.236083984375,-1.551513671875,6.776611328125
0.0725,-6.396240234375,-0.870849609375,6.536376953125
0.073,-6.115966796875,0.090087890625,5.735595703125
0.0735,-5.795654296875,1.251220703125,4.534423828125
0.074,-5.675537109375,2.692626953125,3.293212890625
0.0745,-5.475341796875,3.933837890625,2.092041015625
0.075,-5.195068359375,4.774658203125,1.211181640625
0.0755,-4.674560546875,5.255126953125,0.370361328125
0.076,-3.633544921875,5.415283203125,-0.790771484375
0.0765,-2.392333984375,5.615478515625,-2.232177734375
0.077,-1.031005859375,5.895751953125,-3.793701171875
0.0775,-0.150146484375,6.055908203125,-4.914794921875
0.078,0.570556640625,6.256103515625,-5.755615234375
0.0785,1.491455078125,5.695556640625,-6.276123046875
0.079,2.852783203125,4.454345703125,-6.516357421875
0.0795,4.134033203125,3.173095703125,-6.876708984375
0.08,5.175048828125,1.891845703125,-6.916748046875
0.0805,5.695556640625,0.970947265625,-6.916748046875
0.081,5.815673828125,0.170166015625,-6.556396484375
0.0815,5.495361328125,-0.830810546875,-5.715576171875
0.082,5.335205078125,-1.991943359375,-4.514404296875
0.0825,5.255126953125,-3.513427734375,-3.193115234375
0.083,5.094970703125,-4.634521484375,-2.072021484375
0.0835,4.814697265625,-5.435302734375,-1.271240234375
0.084,4.134033203125,-5.795654296875,-0.390380859375
0.0845,3.012939453125,-5.955810546875,0.890869140625
0.085,1.731689453125,-6.276123046875,2.412353515625
0.0855,0.490478515625,-6.476318359375,3.893798828125
0.086,-0.350341796875,-6.716552734375,4.894775390625
0.0865,-1.071044921875,-6.716552734375,5.655517578125
0.087,-2.112060546875,-5.915771484375,6.055908203125
0.0875,-3.473388671875,-4.634521484375,6.376220703125
0.088,-4.794677734375,-3.353271484375,6.656494140625
0.0885,-5.555419921875,-2.272216796875,6.616455078125
0.089,-5.915771484375,-1.511474609375,6.536376953125
0.0895,-5.915771484375,-0.750732421875,6.015869140625
0.09,-5.635498046875,0.410400390625,5.094970703125
0.0905,-5.515380859375,1.731689453125,3.933837890625
0.091,-5.435302734375,3.052978515625,2.692626953125
0.0915,-5.235107421875,4.093994140625,1.731689453125
0.092,-4.954833984375,4.734619140625,0.970947265625
0.0925,-4.114013671875,4.974853515625,0.050048828125
0.093,-2.992919921875,5.175048828125,-1.311279296875
0.0935,-1.791748046875,5.575439453125,-2.872802734375
0.094,-0.790771484375,5.735595703125,-4.114013671875
0.0945,0.010009765625,6.055908203125,-4.994873046875
0.095,0.770751953125,5.815673828125,-5.715576171875
0.0955,1.931884765625,4.854736328125,-5.995849609375
0.096,3.253173828125,3.693603515625,-6.396240234375
0.0965,4.414306640625,2.412353515625,-6.556396484375
0.097,5.094970703125,1.411376953125,-6.556396484375
0.0975,5.375244140625,0.770751953125,-6.556396484375
0.098,5.255126953125,0.010009765625,-5.915771484375
0.0985,5.094970703125,-1.071044921875,-4.994873046875
0.099,5.014892578125,-2.432373046875,-3.873779296875
0.0995,4.934814453125,-3.673583984375,-2.752685546875
0.1,4.814697265625,-4.594482421875,-1.911865234375
0.1005,4.494384765625,-5.195068359375,-1.151123046875
0.101,3.613525390625,-5.395263671875,-0.190185546875
0.1015,2.532470703125,-5.715576171875,1.171142578125
0.102,1.371337890625,-6.075927734375,2.652587890625
0.1025,0.490478515625,-6.356201171875,3.813720703125
0.103,-0.230224609375,-6.676513671875,4.734619140625
0.1035,-1.111083984375,-6.276123046875,5.295166015625
0.104,-2.272216796875,-5.355224609375,5.695556640625
0.1045,-3.553466796875,-4.234130859375,6.135986328125
0.105,-4.634521484375,-3.153076171875,6.296142578125
0.1055,-5.315185546875,-2.272216796875,6.416259765625
0.106,-5.515380859375,-1.591552734375,6.256103515625
0.1065,-5.435302734375,-0.790771484375,5.575439453125
0.107,-5.315185546875,0.410400390625,4.694580078125
0.1075,-5.395263671875,1.771728515625,3.653564453125
0.108,-5.275146484375,2.932861328125,2.652587890625
0.1085,-5.155029296875,3.853759765625,1.891845703125
0.109,-4.674560546875,4.334228515625,1.010986328125
0.1095,-3.793701171875,4.614501953125,0.010009765625
0.11,-2.792724609375,5.094970703125,-1.471435546875
0.1105,-1.671630859375,5.415283203125,-2.872802734375
0.111,-0.990966796875,5.735595703125,-3.993896484375
0.1115,-0.310302734375,5.935791015625,-4.834716796875
0.112,0.810791015625,5.415283203125,-5.355224609375
0.1125,2.052001953125,4.374267578125,-5.755615234375
0.113,3.373291015625,3.213134765625,-6.196044921875
0.1135,4.294189453125,2.172119140625,-6.356201171875
0.114,4.854736328125,1.531494140625,-6.436279296875
0.1145,4.974853515625,0.770751953125,-6.115966796875
0.115,4.854736328125,-0.150146484375,-5.435302734375
0.1155,4.854736328125,-1.311279296875,-4.554443359375
0.116,4.894775390625,-2.632568359375,-3.513427734375
0.1165,4.814697265625,-3.713623046875,-2.592529296875
0.117,4.694580078125,-4.514404296875,-1.871826171875
0.1175,4.093994140625,-4.914794921875,-0.990966796875
0.118,3.173095703125,-5.235107421875,0.250244140625
0.1185,2.172119140625,-5.715576171875,1.611572265625
0.119,1.211181640625,-6.035888671875,2.852783203125
0.1195,0.530517578125,-6.436279296875,3.933837890625
0.12,-0.350341796875,-6.396240234375,4.734619140625
0.1205,-1.391357421875,-5.755615234375,5.135009765625
0.121,-2.632568359375,-4.834716796875,5.615478515625
0.1215,-3.913818359375,-3.713623046875,5.975830078125
0.122,-4.714599609375,-2.712646484375,6.135986328125
0.1225,-5.155029296875,-2.072021484375,6.216064453125
0.123,-5.195068359375,-1.351318359375,5.775634765625
0.1235,-5.114990234375,-0.390380859375,5.054931640625
0.124,-5.235107421875,0.970947265625,4.134033203125
0.1245,-5.195068359375,2.212158203125,3.173095703125
0.125,-5.195068359375,3.213134765625,2.332275390625
0.1255,-4.914794921875,3.933837890625,1.571533203125
0.126,-4.194091796875,4.294189453125,0.610595703125
0.1265,-3.313232421875,4.694580078125,-0.670654296875
0.127,-2.272216796875,5.175048828125,-2.112060546875
0.1275,-1.431396484375,5.575439453125,-3.313232421875
0.128,-0.790771484375,5.895751953125,-4.314208984375
0.1285,0.210205078125,5.615478515625,-4.994873046875
0.129,1.371337890625,4.774658203125,-5.435302734375
0.1295,2.692626953125,3.733642578125,-5.915771484375
0.13,3.853759765625,2.692626953125,-6.196044921875
0.1305,4.534423828125,1.851806640625,-6.356201171875
0.131,4.854736328125,1.131103515625,-6.276123046875
0.1315,4.814697265625,0.330322265625,-5.715576171875
0.132,4.814697265625,-0.790771484375,-4.874755859375
0.1325,4.894775390625,-2.152099609375,-3.873779296875
0.133,4.854736328125,-3.313232421875,-2.912841796875
0.1335,4.814697265625,-4.234130859375,-2.152099609375
0.134,4.374267578125,-4.754638671875,-1.351318359375
0.1345,3.533447265625,-5.074951171875,-0.310302734375
0.135,2.532470703125,-5.515380859375,1.131103515625
0.1355,1.491455078125,-5.915771484375,2.532470703125
0.136,0.770751953125,-6.356201171875,3.613525390625
0.1365,0.050048828125,-6.516357421875,4.534423828125
0.137,-0.990966796875,-6.035888671875,5.054931640625
0.1375,-2.312255859375,-5.114990234375,5.495361328125
0.138,-3.633544921875,-3.913818359375,5.975830078125
0.1385,-4.554443359375,-2.872802734375,6.135986328125
0.139,-5.155029296875,-2.192138671875,6.296142578125
0.1395,-5.275146484375,-1.471435546875,5.975830078125
0.14,-5.155029296875,-0.590576171875,5.215087890625
0.1405,-5.155029296875,0.690673828125,4.334228515625
0.141,-5.275146484375,2.052001953125,3.333251953125
0.1415,-5.195068359375,3.173095703125,2.372314453125
0.142,-5.034912109375,3.893798828125,1.651611328125
0.1425,-4.394287109375,4.334228515625,0.770751953125
0.143,-3.473388671875,4.614501953125,-0.510498046875
0.1435,-2.432373046875,5.135009765625,-1.951904296875
0.144,-1.471435546875,5.495361328125,-3.193115234375
0.1445,-0.790771484375,5.815673828125,-4.274169921875
0.145,0.090087890625,5.775634765625,-5.074951171875
0.1455,1.251220703125,4.974853515625,-5.475341796875
0.146,2.572509765625,3.973876953125,-5.955810546875
0.1465,3.853759765625,2.772705078125,-6.276123046875
0.147,4.654541015625,1.811767578125,-6.396240234375
0.1475,5.054931640625,1.131103515625,-6.396240234375
0.148,5.054931640625,0.330322265625,-5.915771484375
0.1485,4.894775390625,-0.750732421875,-5.034912109375
0.149,4.934814453125,-2.072021484375,-3.993896484375
0.1495,4.934814453125,-3.353271484375,-2.912841796875
0.15,4.814697265625,-4.354248046875,-2.072021484375
0.1505,4.494384765625,-4.994873046875,-1.271240234375
0.151,3.693603515625,-5.275146484375,-0.350341796875
0.1515,2.572509765625,-5.595458984375,1.091064453125
0.152,1.451416015625,-6.035888671875,2.612548828125
0.1525,0.610595703125,-6.396240234375,3.773681640625
0.153,-0.150146484375,-6.676513671875,4.734619140625
0.1535,-1.151123046875,-6.316162109375,5.335205078125
0.154,-2.352294921875,-5.235107421875,5.735595703125
0.1545,-3.713623046875,-4.033935546875,6.176025390625
0.155,-4.834716796875,-2.872802734375,6.376220703125
0.1555,-5.475341796875,-1.991943359375,6.416259765625
0.156,-5.635498046875,-1.271240234375,6.216064453125
0.1565,-5.475341796875,-0.390380859375,5.415283203125
0.157,-5.395263671875,0.890869140625,4.414306640625
0.1575,-5.395263671875,2.292236328125,3.253173828125
0.158,-5.315185546875,3.493408203125,2.212158203125
0.1585,-5.114990234375,4.334228515625,1.411376953125
0.159,-4.514404296875,4.774658203125,0.570556640625
0.1595,-3.473388671875,4.934814453125,-0.670654296875
0.16,-2.312255859375,5.335205078125,-2.192138671875
0.1605,-1.191162109375,5.655517578125,-3.593505859375
0.161,-0.430419921875,5.895751953125,-4.674560546875
0.1615,0.370361328125,5.975830078125,-5.475341796875
0.162,1.451416015625,5.255126953125,-5.915771484375
0.1625,2.852783203125,4.013916015625,-6.276123046875
0.163,4.214111328125,2.732666015625,-6.636474609375
0.1635,5.094970703125,1.571533203125,-6.676513671875
0.164,5.495361328125,0.850830078125,-6.636474609375
0.1645,5.455322265625,0.050048828125,-6.115966796875
0.165,5.255126953125,-1.071044921875,-5.155029296875
0.1655,5.094970703125,-2.392333984375,-3.993896484375
0.166,5.094970703125,-3.873779296875,-2.752685546875
0.1665,4.934814453125,-4.874755859375,-1.791748046875
0.167,4.614501953125,-5.515380859375,-0.990966796875
0.1675,3.813720703125,-5.755615234375,0.050048828125
0.168,2.532470703125,-5.915771484375,1.371337890625
0.1685,1.251220703125,-6.396240234375,3.012939453125
0.169,0.210205078125,-6.596435546875,4.334228515625
0.1695,-0.630615234375,-6.836669921875,5.215087890625
0.17,-1.431396484375,-6.556396484375,5.895751953125
0.1705,-2.712646484375,-5.435302734375,6.256103515625
0.171,-4.114013671875,-4.154052734375,6.616455078125
0.1715,-5.355224609375,-2.792724609375,6.816650390625
0.172,-6.035888671875,-1.711669921875,6.736572265625
0.1725,-6.236083984375,-0.990966796875,6.536376953125
0.173,-6.035888671875,0.010009765625,5.775634765625
0.1735,-5.755615234375,1.251220703125,4.534423828125
0.174,-5.675537109375,2.692626953125,3.253173828125
0.1745,-5.515380859375,4.053955078125,2.011962890625
0.175,-5.235107421875,4.934814453125,1.091064453125
0.1755,-4.674560546875,5.375244140625,0.250244140625
0.176,-3.593505859375,5.495361328125,-0.990966796875
0.1765,-2.192138671875,5.695556640625,-2.552490234375
0.177,-0.830810546875,5.975830078125,-4.194091796875
0.1775,0.130126953125,6.095947265625,-5.275146484375
0.178,0.810791015625,6.256103515625,-6.115966796875
0.1785,1.851806640625,5.575439453125,-6.596435546875
0.179,3.253173828125,4.174072265625,-6.836669921875
0.1795,4.654541015625,2.772705078125,-7.076904296875
0.18,5.655517578125,1.411376953125,-7.116943359375
0.1805,6.095947265625,0.490478515625,-6.956787109375
0.181,6.095947265625,-0.430419921875,-6.516357421875
0.1815,5.735595703125,-1.431396484375,-5.435302734375
0.182,5.455322265625,-2.752685546875,-4.114013671875
0.1825,5.295166015625,-4.314208984375,-2.672607421875
0.183,5.094970703125,-5.395263671875,-1.511474609375
0.1835,4.694580078125,-6.115966796875,-0.670654296875
0.184,3.893798828125,-6.316162109375,0.290283203125
0.1845,2.572509765625,-6.396240234375,1.571533203125
0.185,1.131103515625,-6.636474609375,3.213134765625
0.1855,-0.310302734375,-6.796630859375,4.694580078125
0.186,-0.990966796875,-6.876708984375,5.655517578125
0.1865,-1.711669921875,-6.756591796875,6.336181640625
0.187,-2.872802734375,-5.755615234375,6.696533203125
0.1875,-4.234130859375,-4.354248046875,6.896728515625
0.188,-5.555419921875,-2.872802734375,7.096923828125
