wavelength,x,y,z
0.0,19.343872070312,-2.2772216796875,-16.250854492188
0.0005,17.421997070312,1.7266845703125,-18.292846679688
0.001,15.500122070312,4.8897705078125,-19.614135742188
0.0015,13.017700195312,7.8126220703125,-20.214721679688
0.002,9.2139892578125,11.175903320312,-19.854370117188
0.0025,4.9698486328125,14.379028320312,-19.093627929688
0.003,0.3653564453125,17.261840820312,-17.452026367188
0.0035,-3.7186279296875,19.023559570312,-15.490112304688
0.004,-6.4412841796875,19.504028320312,-13.448120117188
0.0045,-9.4442138671875,19.864379882812,-10.965698242188
0.005,-13.127807617188,19.343872070312,-6.9217529296875
0.0055,-16.090698242188,18.302856445312,-3.0379638671875
0.006,-18.453002929688,16.581176757812,1.0860595703125
0.0065,-20.014526367188,14.579223632812,4.5694580078125
0.007,-20.454956054688,12.016723632812,7.5323486328125
0.0075,-20.494995117188,8.6534423828125,10.895629882812
0.008,-20.014526367188,4.8497314453125,14.218872070312
0.0085,-19.053588867188,0.8458251953125,17.221801757812
0.009,-17.051635742188,-3.0780029296875,19.183715820312
0.0095,-14.929565429688,-6.0008544921875,19.984497070312
0.01,-12.407104492188,-8.9637451171875,20.545043945312
0.0105,-7.8026123046875,-12.767456054688,19.984497070312
0.011,-3.5184326171875,-15.690307617188,18.823364257812
0.0115,1.0460205078125,-18.092651367188,16.941528320312
0.012,4.7696533203125,-19.734252929688,15.099731445312
0.0125,7.5723876953125,-19.934448242188,12.697387695312
0.013,10.615356445312,-20.054565429688,9.9346923828125
0.0135,14.338989257812,-19.453979492188,5.7305908203125
0.014,17.301879882812,-18.012573242188,1.4063720703125
0.0145,19.343872070312,-16.090698242188,-2.5574951171875
0.015,20.464965820312,-13.968627929688,-5.7205810546875
0.0155,20.785278320312,-11.245971679688,-8.7635498046875
0.016,20.545043945312,-7.2020263671875,-12.527221679688
0.0165,19.904418945312,-3.7186279296875,-15.410034179688
0.017,18.463012695312,0.4854736328125,-18.092651367188
0.0175,16.461059570312,4.2091064453125,-19.894409179688
0.018,13.778442382812,7.0919189453125,-20.174682617188
0.0185,11.055786132812,10.094848632812,-20.575073242188
0.019,6.1309814453125,14.058715820312,-19.774291992188
0.0195,1.5665283203125,16.901489257812,-18.332885742188
0.02,-2.5574951171875,18.783325195312,-16.370971679688
0.0205,-5.9207763671875,20.104614257812,-14.489135742188
0.021,-8.8836669921875,20.144653320312,-11.766479492188
0.0215,-12.206909179688,19.864379882812,-8.2830810546875
0.022,-15.490112304688,19.183715820312,-4.4793701171875
0.0225,-18.332885742188,17.421997070312,0.1251220703125
0.023,-20.054565429688,15.339965820312,3.8887939453125
0.0235,-20.655151367188,12.857543945312,6.8917236328125
0.024,-21.015502929688,10.094848632812,9.9346923828125
0.0245,-20.494995117188,5.6104736328125,13.898559570312
0.025,-19.614135742188,1.9268798828125,16.661254882812
0.0255,-17.852416992188,-1.9569091796875,18.783325195312
0.026,-15.930541992188,-5.4803466796875,20.464965820312
0.0265,-12.967651367188,-8.3231201171875,20.464965820312
0.027,-9.6043701171875,-11.486206054688,20.424926757812
0.0275,-4.9598388671875,-15.049682617188,19.504028320312
0.028,0.0050048828125,-17.812377929688,17.622192382812
0.0285,3.8087158203125,-19.373901367188,15.660278320312
0.029,6.7315673828125,-20.134643554688,13.618286132812
0.0295,9.6944580078125,-20.294799804688,11.015747070312
0.03,13.458129882812,-19.574096679688,6.6514892578125
0.0305,16.340942382812,-18.653198242188,3.0079345703125
0.031,18.743286132812,-16.811401367188,-1.2762451171875
0.0315,20.224731445312,-14.769409179688,-4.7996826171875
0.032,20.424926757812,-12.006713867188,-7.6024169921875
0.0325,20.585083007812,-9.0838623046875,-10.725463867188
0.033,19.984497070312,-4.8797607421875,-14.369018554688
0.0335,18.823364257812,-0.9559326171875,-17.171752929688
0.034,16.821411132812,2.7276611328125,-18.733276367188
0.0345,14.899536132812,5.8907470703125,-20.014526367188
0.035,12.016723632812,8.7735595703125,-20.094604492188
0.0355,7.6524658203125,12.417114257812,-19.534057617188
0.036,3.7286376953125,15.339965820312,-18.773315429688
0.0365,-1.0760498046875,17.862426757812,-16.771362304688
0.037,-4.5594482421875,19.263793945312,-14.889526367188
0.0375,-7.3621826171875,19.544067382812,-12.647338867188
0.038,-10.204956054688,19.864379882812,-10.204956054688
0.0385,-14.128784179688,19.063598632812,-5.6405029296875
0.039,-16.851440429688,17.742309570312,-1.6365966796875
0.0395,-18.853393554688,15.980590820312,2.0469970703125
0.04,-20.134643554688,13.898559570312,5.3702392578125
0.0405,-20.214721679688,10.975708007812,8.2930908203125
0.041,-20.214721679688,7.4923095703125,11.776489257812
0.0415,-19.734252929688,3.8087158203125,14.899536132812
0.042,-18.292846679688,-0.3153076171875,17.622192382812
0.0425,-16.330932617188,-3.7987060546875,19.143676757812
0.043,-14.128784179688,-6.6014404296875,19.864379882812
0.0435,-11.406127929688,-9.5643310546875,20.224731445312
0.044,-6.3211669921875,-13.528198242188,19.303833007812
0.0445,-2.1971435546875,-16.250854492188,18.102661132812
0.045,2.0469970703125,-18.332885742188,16.260864257812
0.0455,5.4102783203125,-19.614135742188,14.379028320312
0.046,8.2930908203125,-19.614135742188,11.696411132812
0.0465,11.416137695312,-19.694213867188,8.7735595703125
0.047,14.979614257812,-18.933471679688,4.6094970703125
0.0475,17.742309570312,-17.171752929688,0.1651611328125
0.048,19.303833007812,-15.329956054688,-3.2781982421875
0.0485,20.184692382812,-13.127807617188,-6.3612060546875
0.049,20.304809570312,-10.325073242188,-9.2039794921875
0.0495,19.904418945312,-6.1209716796875,-13.127807617188
0.05,19.223754882812,-2.5975341796875,-15.850463867188
0.0505,17.622192382812,1.4464111328125,-18.252807617188
0.051,15.500122070312,4.9298095703125,-19.614135742188
0.0515,12.777465820312,7.7325439453125,-19.854370117188
0.052,9.8546142578125,10.855590820312,-20.134643554688
0.0525,4.7696533203125,14.699340820312,-19.133666992188
0.053,0.1651611328125,17.301879882812,-17.371948242188
0.0535,-3.4783935546875,18.943481445312,-15.690307617188
0.054,-6.6815185546875,19.984497070312,-13.728393554688
0.0545,-9.6444091796875,19.864379882812,-10.765502929688
0.055,-13.207885742188,19.463989257812,-6.9217529296875
0.0555,-16.330932617188,18.583129882812,-3.0780029296875
0.056,-18.853393554688,16.661254882812,1.4063720703125
0.0565,-20.054565429688,14.539184570312,4.6094970703125
0.057,-20.575073242188,11.896606445312,7.7325439453125
0.0575,-20.655151367188,8.9337158203125,10.735473632812
0.058,-20.054565429688,4.4893798828125,14.619262695312
0.0585,-18.853393554688,0.6055908203125,17.301879882812
0.059,-17.131713867188,-3.0379638671875,19.183715820312
0.0595,-15.049682617188,-6.2811279296875,20.424926757812
0.06,-11.766479492188,-9.2440185546875,20.184692382812
0.0605,-8.0028076171875,-12.647338867188,20.024536132812
0.061,-3.3582763671875,-15.970581054688,18.943481445312
0.0615,1.5665283203125,-18.372924804688,16.701293945312
0.062,4.7696533203125,-19.534057617188,14.859497070312
0.0625,7.7725830078125,-20.214721679688,12.737426757812
0.063,10.735473632812,-20.014526367188,9.7745361328125
0.0635,14.419067382812,-19.173706054688,5.3302001953125
0.064,17.301879882812,-17.972534179688,1.4063720703125
0.0645,19.343872070312,-16.090698242188,-2.6375732421875
0.065,20.224731445312,-13.848510742188,-5.7205810546875
0.0655,20.384887695312,-10.885620117188,-8.7635498046875
0.066,20.344848632812,-7.6824951171875,-11.846557617188
0.0665,19.704223632812,-3.6385498046875,-15.249877929688
0.067,18.062622070312,0.6055908203125,-17.772338867188
0.0675,16.140747070312,3.8887939453125,-19.173706054688
0.068,13.978637695312,6.9317626953125,-20.174682617188
0.0685,10.695434570312,9.8546142578125,-19.974487304688
0.069,6.1309814453125,13.538208007812,-19.253784179688
0.0695,1.9669189453125,16.461059570312,-18.252807617188
0.07,-2.5975341796875,18.583129882812,-16.090698242188
0.0705,-5.6004638671875,19.504028320312,-14.168823242188
0.071,-8.6033935546875,19.784301757812,-11.686401367188
0.0715,-11.606323242188,19.704223632812,-8.6834716796875
0.072,-15.169799804688,18.743286132812,-4.3592529296875
0.0725,-17.812377929688,17.021606445312,0.0050048828125
0.073,-19.494018554688,15.179809570312,3.4483642578125
0.0735,-20.254760742188,12.937622070312,6.4512939453125
0.074,-20.294799804688,9.7745361328125,9.5343017578125
0.0745,-19.974487304688,5.9708251953125,12.977661132812
0.075,-19.373901367188,2.3272705078125,16.060668945312
0.0755,-17.612182617188,-1.8367919921875,18.463012695312
0.076,-15.490112304688,-4.9598388671875,19.504028320312
0.0765,-13.127807617188,-7.8826904296875,20.184692382812
0.077,-9.6844482421875,-11.045776367188,20.104614257812
0.0775,-4.7596435546875,-14.689331054688,18.943481445312
0.078,-0.3953857421875,-17.291870117188,17.421997070312
0.0785,3.5684814453125,-19.133666992188,15.620239257812
0.079,6.5313720703125,-19.814331054688,13.538208007812
0.0795,9.5343017578125,-19.814331054688,10.655395507812
0.08,12.937622070312,-19.494018554688,7.0919189453125
0.0805,16.140747070312,-18.533081054688,3.0479736328125
0.081,18.543090820312,-16.571166992188,-1.3963623046875
0.0815,19.784301757812,-14.569213867188,-4.4793701171875
0.082,20.384887695312,-12.126831054688,-7.5223388671875
0.0825,20.224731445312,-8.8436279296875,-10.605346679688
0.083,19.704223632812,-4.7596435546875,-14.088745117188
0.0835,18.663208007812,-1.0360107421875,-16.811401367188
0.084,16.901489257812,2.8477783203125,-18.933471679688
0.0845,14.579223632812,5.8907470703125,-19.694213867188
0.085,11.816528320312,8.8135986328125,-19.934448242188
0.0855,7.9727783203125,12.296997070312,-19.814331054688
0.086,3.3282470703125,15.580200195312,-18.613159179688
0.0865,-1.2762451171875,17.862426757812,-16.611206054688
0.087,-4.5594482421875,19.263793945312,-14.889526367188
0.0875,-7.5623779296875,19.864379882812,-12.767456054688
0.088,-10.605346679688,19.704223632812,-9.6444091796875
0.0885,-14.088745117188,19.063598632812,-5.7606201171875
0.089,-17.011596679688,17.822387695312,-1.6365966796875
0.0895,-19.213745117188,15.820434570312,2.5675048828125
0.09,-20.014526367188,13.658325195312,5.4903564453125
0.0905,-20.494995117188,10.895629882812,8.6534423828125
0.091,-20.374877929688,7.3721923828125,12.016723632812
0.0915,-19.694213867188,3.4483642578125,15.299926757812
0.092,-18.132690429688,-0.5955810546875,17.742309570312
0.0925,-16.370971679688,-4.1190185546875,19.504028320312
0.093,-13.968627929688,-7.0418701171875,20.144653320312
0.0935,-10.765502929688,-10.044799804688,20.064575195312
0.094,-6.5213623046875,-13.568237304688,19.544067382812
0.0945,-1.8367919921875,-16.691284179688,18.222778320312
0.095,2.6475830078125,-18.653198242188,15.980590820312
0.0955,5.6104736328125,-19.574096679688,14.218872070312
0.096,8.6134033203125,-20.014526367188,11.776489257812
0.0965,11.816528320312,-19.654174804688,8.2930908203125
0.097,15.099731445312,-18.893432617188,4.3292236328125
0.0975,17.862426757812,-17.251831054688,0.1251220703125
0.098,19.744262695312,-15.249877929688,-3.7987060546875
0.0985,20.184692382812,-12.847534179688,-6.6014404296875
0.099,20.424926757812,-9.9246826171875,-9.6844482421875
0.0995,20.024536132812,-6.0809326171875,-13.167846679688
0.1,19.303833007812,-2.2772216796875,-16.210815429688
0.1005,17.421997070312,1.7667236328125,-18.332885742188
0.101,15.500122070312,4.9698486328125,-19.654174804688
0.1015,12.977661132812,7.8927001953125,-20.174682617188
0.102,9.1339111328125,11.215942382812,-19.854370117188
0.1025,4.9698486328125,14.419067382812,-19.053588867188
0.103,0.3253173828125,17.301879882812,-17.452026367188
0.1035,-3.7987060546875,19.063598632812,-15.450073242188
0.104,-6.5213623046875,19.504028320312,-13.448120117188
0.1045,-9.4842529296875,19.864379882812,-10.885620117188
0.105,-13.127807617188,19.303833007812,-6.8817138671875
0.1055,-16.050659179688,18.302856445312,-2.9578857421875
0.106,-18.453002929688,16.501098632812,1.1661376953125
0.1065,-20.014526367188,14.459106445312,4.6094970703125
0.107,-20.374877929688,11.896606445312,7.5323486328125
0.1075,-20.414916992188,8.6534423828125,10.815551757812
0.108,-19.894409179688,4.8096923828125,14.098754882812
0.1085,-18.933471679688,0.8858642578125,17.101684570312
0.109,-16.931518554688,-3.0780029296875,19.023559570312
0.1095,-14.809448242188,-5.9207763671875,19.864379882812
0.11,-12.246948242188,-8.8836669921875,20.344848632812
0.1105,-7.8426513671875,-12.527221679688,19.824340820312
0.111,-3.5584716796875,-15.530151367188,18.703247070312
0.1115,0.9259033203125,-17.892456054688,16.781372070312
0.112,4.6495361328125,-19.534057617188,15.019653320312
0.1125,7.3721923828125,-19.814331054688,12.657348632812
0.113,10.375122070312,-19.894409179688,9.9346923828125
0.1135,14.098754882812,-19.213745117188,5.7706298828125
0.114,16.981567382812,-17.892456054688,1.5665283203125
0.1145,19.063598632812,-15.970581054688,-2.3973388671875
0.115,20.104614257812,-13.848510742188,-5.4803466796875
0.1155,20.464965820312,-11.205932617188,-8.5233154296875
0.116,20.304809570312,-7.4022216796875,-12.126831054688
0.1165,19.704223632812,-3.8387451171875,-15.089721679688
0.117,18.262817382812,0.3253173828125,-17.692260742188
0.1175,16.300903320312,4.0889892578125,-19.574096679688
0.118,13.738403320312,6.8917236328125,-19.894409179688
0.1185,11.055786132812,9.8546142578125,-20.294799804688
0.119,6.2110595703125,13.778442382812,-19.574096679688
0.1195,1.7667236328125,16.661254882812,-18.252807617188
0.12,-2.3973388671875,18.543090820312,-16.290893554688
0.1205,-5.8006591796875,19.864379882812,-14.449096679688
0.121,-8.7235107421875,19.984497070312,-11.806518554688
0.1215,-12.006713867188,19.784301757812,-8.4031982421875
0.122,-15.369995117188,19.103637695312,-4.5194091796875
0.1225,-18.252807617188,17.341918945312,0.0450439453125
0.123,-20.014526367188,15.339965820312,3.8487548828125
0.1235,-20.655151367188,12.897583007812,6.8516845703125
0.124,-21.015502929688,10.134887695312,9.9346923828125
0.1245,-20.575073242188,5.6905517578125,13.938598632812
0.125,-19.734252929688,1.9669189453125,16.781372070312
0.1255,-18.012573242188,-1.9569091796875,18.943481445312
0.126,-16.010620117188,-5.6004638671875,20.625122070312
0.1265,-13.007690429688,-8.4832763671875,20.665161132812
0.127,-9.6844482421875,-11.686401367188,20.745239257812
0.1275,-4.8797607421875,-15.410034179688,19.824340820312
0.128,0.1651611328125,-18.212768554688,17.902465820312
0.1285,4.0089111328125,-19.814331054688,15.820434570312
0.129,7.1719970703125,-20.655151367188,13.778442382812
0.1295,10.214965820312,-20.735229492188,10.975708007812
0.13,14.018676757812,-20.014526367188,6.5714111328125
0.1305,16.941528320312,-19.013549804688,2.8077392578125
0.131,19.504028320312,-17.091674804688,-1.6766357421875
0.1315,20.985473632812,-14.889526367188,-5.3201904296875
0.132,21.145629882812,-12.006713867188,-8.3231201171875
0.1325,21.345825195312,-9.0438232421875,-11.486206054688
0.133,20.625122070312,-4.5194091796875,-15.249877929688
0.1335,19.343872070312,-0.3953857421875,-18.092651367188
0.134,17.301879882812,3.3682861328125,-19.734252929688
0.1345,15.099731445312,6.6915283203125,-21.055541992188
0.135,11.816528320312,9.7344970703125,-20.975463867188
0.1355,7.5323486328125,13.378051757812,-20.494995117188
0.136,3.2882080078125,16.461059570312,-19.494018554688
0.1365,-1.7967529296875,18.983520507812,-17.291870117188
0.137,-5.4403076171875,20.304809570312,-15.209838867188
0.1375,-8.4031982421875,20.625122070312,-12.687377929688
0.138,-11.366088867188,20.785278320312,-10.084838867188
0.1385,-15.410034179688,19.784301757812,-5.1600341796875
0.139,-18.132690429688,18.262817382812,-0.9959716796875
0.1395,-20.134643554688,16.300903320312,3.0079345703125
0.14,-21.295776367188,14.018676757812,6.4112548828125
0.1405,-21.295776367188,10.855590820312,9.5343017578125
0.141,-21.215698242188,7.3321533203125,12.937622070312
0.1415,-20.535034179688,3.3282470703125,16.260864257812
0.142,-18.933471679688,-1.1160888671875,18.983520507812
0.1425,-16.651245117188,-4.6795654296875,20.344848632812
0.143,-14.288940429688,-7.7225341796875,21.105590820312
0.1435,-11.245971679688,-10.725463867188,21.225708007812
0.144,-5.9207763671875,-14.769409179688,20.184692382812
0.1445,-1.6766357421875,-17.492065429688,18.863403320312
0.145,2.8077392578125,-19.574096679688,16.701293945312
0.1455,6.3311767578125,-20.655151367188,14.619262695312
0.146,9.3341064453125,-20.575073242188,11.656372070312
0.1465,12.417114257812,-20.535034179688,8.6934814453125
0.147,16.060668945312,-19.574096679688,4.1290283203125
0.1475,18.863403320312,-17.652221679688,-0.5155029296875
0.148,20.384887695312,-15.650268554688,-3.9989013671875
0.1485,21.265747070312,-13.287963867188,-7.2020263671875
0.149,21.185668945312,-10.244995117188,-10.124877929688
0.1495,20.745239257812,-5.9207763671875,-13.968627929688
0.15,19.904418945312,-2.3172607421875,-16.731323242188
0.1505,18.222778320312,1.8868408203125,-19.213745117188
0.151,15.860473632812,5.4102783203125,-20.454956054688
0.1515,13.017700195312,8.3331298828125,-20.655151367188
0.152,9.8946533203125,11.496215820312,-20.815307617188
0.1525,4.6094970703125,15.339965820312,-19.694213867188
0.153,0.0050048828125,17.942504882812,-17.852416992188
0.1535,-3.7987060546875,19.584106445312,-16.010620117188
0.154,-7.0819091796875,20.625122070312,-13.928588867188
0.1545,-10.204956054688,20.424926757812,-10.845581054688
0.155,-13.608276367188,19.984497070312,-7.0418701171875
0.1555,-16.811401367188,19.063598632812,-3.0379638671875
0.156,-19.413940429688,16.941528320312,1.6065673828125
0.1565,-20.655151367188,14.779418945312,4.9298095703125
0.157,-21.175659179688,12.136840820312,8.1329345703125
0.1575,-21.215698242188,9.1339111328125,11.135864257812
0.158,-20.575073242188,4.5294189453125,15.059692382812
0.1585,-19.373901367188,0.6456298828125,17.782348632812
0.159,-17.572143554688,-3.1981201171875,19.784301757812
0.1595,-15.369995117188,-6.4813232421875,20.945434570312
0.16,-12.006713867188,-9.5643310546875,20.785278320312
0.1605,-8.3231201171875,-13.007690429688,20.625122070312
0.161,-3.3582763671875,-16.491088867188,19.463989257812
0.1615,1.6866455078125,-18.893432617188,17.141723632812
0.162,4.9698486328125,-20.094604492188,15.219848632812
0.1625,8.1729736328125,-20.815307617188,12.977661132812
0.163,11.215942382812,-20.575073242188,9.8946533203125
0.1635,14.939575195312,-19.734252929688,5.3702392578125
0.164,17.862426757812,-18.453002929688,1.2862548828125
0.1645,20.104614257812,-16.370971679688,-2.9578857421875
0.165,20.985473632812,-14.088745117188,-6.1209716796875
0.1655,21.185668945312,-11.005737304688,-9.3641357421875
0.166,21.105590820312,-7.7225341796875,-12.527221679688
0.1665,20.424926757812,-3.4783935546875,-16.050659179688
0.167,18.623168945312,0.9259033203125,-18.613159179688
0.1675,16.581176757812,4.3692626953125,-20.134643554688
0.168,14.258911132812,7.6124267578125,-21.095581054688
0.1685,10.695434570312,10.655395507812,-20.815307617188
0.169,6.0909423828125,14.338989257812,-20.094604492188
0.1695,1.6866455078125,17.421997070312,-18.893432617188
0.17,-3.1580810546875,19.544067382812,-16.611206054688
0.1705,-6.2410888671875,20.384887695312,-14.529174804688
0.171,-9.4041748046875,20.745239257812,-11.886596679688
0.1715,-12.647338867188,20.464965820312,-8.5233154296875
0.172,-16.210815429688,19.504028320312,-4.0789794921875
0.1725,-18.933471679688,17.662231445312,0.4454345703125
0.173,-20.695190429688,15.660278320312,4.2091064453125
0.1735,-21.455932617188,13.177856445312,7.3321533203125
0.174,-21.455932617188,9.8145751953125,10.615356445312
0.1745,-21.015502929688,5.8907470703125,14.098754882812
0.175,-20.214721679688,1.9268798828125,17.301879882812
0.1755,-18.252807617188,-2.4774169921875,19.664184570312
0.176,-15.970581054688,-5.7205810546875,20.705200195312
0.1765,-13.448120117188,-8.8436279296875,21.385864257812
0.177,-9.5643310546875,-12.206909179688,21.065551757812
0.1775,-4.6395263671875,-15.690307617188,19.864379882812
0.178,0.0450439453125,-18.372924804688,18.142700195312
