wavelength,x,y,z
0.0,4.854736328125,1.251220703125,-6.276123046875
0.0005,5.054931640625,0.490478515625,-5.995849609375
0.001,4.974853515625,-0.510498046875,-5.315185546875
0.0015,4.894775390625,-1.591552734375,-4.474365234375
0.002,4.814697265625,-2.872802734375,-3.233154296875
0.0025,4.534423828125,-3.873779296875,-2.192138671875
0.003,4.334228515625,-4.634521484375,-1.391357421875
0.0035,3.853759765625,-5.155029296875,-0.590576171875
0.004,3.012939453125,-5.475341796875,0.610595703125
0.0045,2.011962890625,-5.915771484375,1.931884765625
0.005,0.970947265625,-6.075927734375,3.173095703125
0.0055,0.250244140625,-6.316162109375,4.134033203125
0.006,-0.630615234375,-6.316162109375,4.934814453125
0.0065,-1.711669921875,-5.715576171875,5.495361328125
0.007,-2.912841796875,-4.754638671875,5.895751953125
0.0075,-4.073974609375,-3.553466796875,6.095947265625
0.008,-4.834716796875,-2.432373046875,6.055908203125
0.0085,-5.195068359375,-1.711669921875,6.015869140625
0.009,-5.315185546875,-0.990966796875,5.655517578125
0.0095,-5.275146484375,0.010009765625,4.854736328125
0.01,-5.195068359375,1.211181640625,3.933837890625
0.0105,-4.994873046875,2.412353515625,2.812744140625
0.011,-4.794677734375,3.333251953125,1.891845703125
0.0115,-4.514404296875,3.973876953125,1.091064453125
0.012,-3.913818359375,4.414306640625,0.250244140625
0.0125,-3.113037109375,4.814697265625,-0.990966796875
0.013,-2.072021484375,5.135009765625,-2.312255859375
0.0135,-1.151123046875,5.375244140625,-3.393310546875
0.014,-0.510498046875,5.615478515625,-4.274169921875
0.0145,0.410400390625,5.455322265625,-5.034912109375
0.015,1.531494140625,4.774658203125,-5.555419921875
0.0155,2.692626953125,3.813720703125,-5.955810546875
0.016,3.773681640625,2.572509765625,-6.075927734375
0.0165,4.494384765625,1.611572265625,-6.115966796875
0.017,4.774658203125,0.970947265625,-6.035888671875
0.0175,4.814697265625,0.170166015625,-5.635498046875
0.018,4.774658203125,-0.830810546875,-4.834716796875
0.0185,4.774658203125,-2.072021484375,-3.873779296875
0.019,4.574462890625,-3.193115234375,-2.832763671875
0.0195,4.414306640625,-4.033935546875,-1.951904296875
0.02,4.134033203125,-4.674560546875,-1.151123046875
0.0205,3.493408203125,-5.114990234375,-0.190185546875
0.021,2.572509765625,-5.595458984375,1.131103515625
0.0215,1.571533203125,-5.915771484375,2.412353515625
0.022,0.770751953125,-6.196044921875,3.493408203125
0.0225,0.050048828125,-6.356201171875,4.374267578125
0.023,-0.990966796875,-6.115966796875,5.094970703125
0.0235,-2.232177734375,-5.195068359375,5.615478515625
0.024,-3.473388671875,-4.114013671875,5.975830078125
0.0245,-4.434326171875,-2.952880859375,6.015869140625
0.025,-4.994873046875,-2.152099609375,6.015869140625
0.0255,-5.275146484375,-1.431396484375,5.775634765625
0.026,-5.235107421875,-0.550537109375,5.255126953125
0.0265,-5.195068359375,0.610595703125,4.374267578125
0.027,-5.114990234375,1.931884765625,3.333251953125
0.0275,-4.914794921875,2.932861328125,2.252197265625
0.028,-4.714599609375,3.733642578125,1.451416015625
0.0285,-4.234130859375,4.294189453125,0.610595703125
0.029,-3.393310546875,4.614501953125,-0.590576171875
0.0295,-2.472412109375,5.094970703125,-1.911865234375
0.03,-1.431396484375,5.335205078125,-3.113037109375
0.0305,-0.710693359375,5.615478515625,-4.114013671875
0.031,0.130126953125,5.615478515625,-4.914794921875
0.0315,1.211181640625,5.054931640625,-5.515380859375
0.032,2.452392578125,4.093994140625,-5.955810546875
0.0325,3.573486328125,2.852783203125,-6.156005859375
0.033,4.414306640625,1.771728515625,-6.156005859375
0.0335,4.774658203125,1.010986328125,-6.115966796875
0.034,4.934814453125,0.290283203125,-5.755615234375
0.0345,4.814697265625,-0.750732421875,-4.954833984375
0.035,4.814697265625,-1.951904296875,-3.993896484375
0.0355,4.654541015625,-3.193115234375,-2.832763671875
0.036,4.494384765625,-4.114013671875,-1.911865234375
0.0365,4.174072265625,-4.794677734375,-1.151123046875
0.037,3.573486328125,-5.235107421875,-0.230224609375
0.0375,2.612548828125,-5.635498046875,1.131103515625
0.038,1.571533203125,-5.955810546875,2.492431640625
0.0385,0.610595703125,-6.156005859375,3.573486328125
0.039,-0.150146484375,-6.396240234375,4.494384765625
0.0395,-1.031005859375,-6.156005859375,5.255126953125
0.04,-2.272216796875,-5.275146484375,5.775634765625
0.0405,-3.553466796875,-4.274169921875,6.135986328125
0.041,-4.594482421875,-2.992919921875,6.216064453125
0.0415,-5.195068359375,-2.031982421875,6.135986328125
0.042,-5.435302734375,-1.271240234375,5.935791015625
0.0425,-5.435302734375,-0.390380859375,5.415283203125
0.043,-5.275146484375,0.770751953125,4.454345703125
0.0435,-5.235107421875,2.092041015625,3.293212890625
0.044,-4.994873046875,3.213134765625,2.132080078125
0.0445,-4.754638671875,4.013916015625,1.291259765625
0.045,-4.274169921875,4.534423828125,0.450439453125
0.0455,-3.433349609375,4.854736328125,-0.670654296875
0.046,-2.432373046875,5.255126953125,-1.991943359375
0.0465,-1.271240234375,5.495361328125,-3.353271484375
0.047,-0.510498046875,5.655517578125,-4.354248046875
0.0475,0.330322265625,5.735595703125,-5.155029296875
0.048,1.331298828125,5.215087890625,-5.755615234375
0.0485,2.612548828125,4.134033203125,-6.156005859375
0.049,3.853759765625,2.892822265625,-6.436279296875
0.0495,4.654541015625,1.611572265625,-6.396240234375
0.05,5.094970703125,0.890869140625,-6.276123046875
0.0505,5.175048828125,0.130126953125,-5.915771484375
0.051,5.094970703125,-0.950927734375,-5.114990234375
0.0515,4.974853515625,-2.072021484375,-4.073974609375
0.052,4.814697265625,-3.473388671875,-2.832763671875
0.0525,4.534423828125,-4.434326171875,-1.751708984375
0.053,4.254150390625,-5.114990234375,-0.950927734375
0.0535,3.653564453125,-5.555419921875,0.010009765625
0.054,2.612548828125,-5.795654296875,1.251220703125
0.0545,1.491455078125,-6.156005859375,2.652587890625
0.055,0.450439453125,-6.316162109375,3.893798828125
0.0555,-0.390380859375,-6.476318359375,4.814697265625
0.056,-1.231201171875,-6.316162109375,5.535400390625
0.0565,-2.432373046875,-5.595458984375,6.095947265625
0.057,-3.713623046875,-4.354248046875,6.416259765625
0.0575,-4.914794921875,-3.032958984375,6.536376953125
0.058,-5.555419921875,-1.871826171875,6.416259765625
0.0585,-5.835693359375,-1.031005859375,6.216064453125
0.059,-5.795654296875,-0.270263671875,5.655517578125
0.0595,-5.595458984375,0.970947265625,4.614501953125
0.06,-5.475341796875,2.292236328125,3.373291015625
0.0605,-5.235107421875,3.613525390625,2.092041015625
0.061,-4.874755859375,4.454345703125,1.091064453125
0.0615,-4.354248046875,4.974853515625,0.250244140625
0.062,-3.553466796875,5.295166015625,-0.910888671875
0.0625,-2.352294921875,5.535400390625,-2.272216796875
0.063,-1.071044921875,5.815673828125,-3.833740234375
0.0635,0.010009765625,5.855712890625,-4.834716796875
0.064,0.650634765625,5.935791015625,-5.635498046875
0.0645,1.611572265625,5.415283203125,-6.276123046875
0.065,2.972900390625,4.254150390625,-6.716552734375
0.0655,4.174072265625,2.932861328125,-6.956787109375
0.066,5.255126953125,1.571533203125,-6.836669921875
0.0665,5.695556640625,0.570556640625,-6.636474609375
0.067,5.735595703125,-0.350341796875,-6.236083984375
0.0675,5.615478515625,-1.311279296875,-5.395263671875
0.068,5.335205078125,-2.552490234375,-4.114013671875
0.0685,5.094970703125,-3.993896484375,-2.712646484375
0.069,4.774658203125,-5.114990234375,-1.471435546875
0.0695,4.334228515625,-5.755615234375,-0.590576171875
0.07,3.693603515625,-6.115966796875,0.450439453125
0.0705,2.532470703125,-6.356201171875,1.651611328125
0.071,1.211181640625,-6.596435546875,3.213134765625
0.0715,-0.150146484375,-6.676513671875,4.614501953125
0.072,-0.950927734375,-6.716552734375,5.455322265625
0.0725,-1.671630859375,-6.556396484375,6.216064453125
0.073,-2.872802734375,-5.755615234375,6.696533203125
0.0735,-4.314208984375,-4.394287109375,6.976806640625
0.074,-5.435302734375,-2.872802734375,7.056884765625
0.0745,-6.156005859375,-1.551513671875,6.776611328125
0.075,-6.396240234375,-0.630615234375,6.456298828125
0.0755,-6.316162109375,0.290283203125,5.855712890625
0.076,-6.035888671875,1.411376953125,4.734619140625
0.0765,-5.715576171875,2.772705078125,3.333251953125
0.077,-5.435302734375,4.134033203125,1.931884765625
0.0775,-4.954833984375,4.974853515625,0.770751953125
0.078,-4.434326171875,5.495361328125,-0.190185546875
0.0785,-3.553466796875,5.735595703125,-1.151123046875
0.079,-2.232177734375,5.855712890625,-2.552490234375
0.0795,-0.910888671875,6.095947265625,-4.114013671875
0.08,0.290283203125,6.055908203125,-5.235107421875
0.0805,1.010986328125,5.975830078125,-5.955810546875
0.081,1.851806640625,5.615478515625,-6.596435546875
0.0815,3.052978515625,4.534423828125,-7.036865234375
0.082,4.334228515625,3.213134765625,-7.156982421875
0.0825,5.415283203125,1.731689453125,-7.116943359375
0.083,5.935791015625,0.570556640625,-6.796630859375
0.0835,6.055908203125,-0.350341796875,-6.436279296875
0.084,5.855712890625,-1.231201171875,-5.715576171875
0.0845,5.495361328125,-2.352294921875,-4.514404296875
0.085,5.255126953125,-3.713623046875,-3.113037109375
0.0855,4.894775390625,-4.994873046875,-1.711669921875
0.086,4.454345703125,-5.715576171875,-0.710693359375
0.0865,3.893798828125,-6.196044921875,0.210205078125
0.087,2.972900390625,-6.396240234375,1.251220703125
0.0875,1.651611328125,-6.556396484375,2.692626953125
0.088,0.330322265625,-6.716552734375,4.174072265625
0.0885,-0.750732421875,-6.716552734375,5.175048828125
0.089,-1.391357421875,-6.716552734375,5.895751953125
0.0895,-2.352294921875,-6.276123046875,6.456298828125
0.09,-3.713623046875,-4.994873046875,6.856689453125
0.0905,-4.914794921875,-3.633544921875,7.056884765625
0.091,-5.915771484375,-2.192138671875,6.896728515625
0.0915,-6.356201171875,-1.151123046875,6.656494140625
0.092,-6.396240234375,-0.350341796875,6.216064453125
0.0925,-6.156005859375,0.690673828125,5.375244140625
0.093,-5.835693359375,1.931884765625,4.134033203125
0.0935,-5.595458984375,3.373291015625,2.732666015625
0.094,-5.195068359375,4.494384765625,1.411376953125
0.0945,-4.794677734375,5.135009765625,0.490478515625
0.095,-4.114013671875,5.535400390625,-0.510498046875
0.0955,-2.992919921875,5.735595703125,-1.711669921875
0.096,-1.711669921875,5.975830078125,-3.193115234375
0.0965,-0.390380859375,6.015869140625,-4.634521484375
0.097,0.570556640625,6.015869140625,-5.555419921875
0.0975,1.211181640625,5.895751953125,-6.236083984375
0.098,2.292236328125,5.255126953125,-6.716552734375
0.0985,3.693603515625,3.893798828125,-7.036865234375
0.099,4.894775390625,2.532470703125,-7.156982421875
0.0995,5.695556640625,1.131103515625,-6.916748046875
0.1,6.015869140625,0.210205078125,-6.636474609375
0.1005,5.935791015625,-0.750732421875,-6.115966796875
0.101,5.695556640625,-1.831787109375,-5.074951171875
0.1015,5.455322265625,-3.193115234375,-3.753662109375
0.102,5.135009765625,-4.554443359375,-2.272216796875
0.1025,4.734619140625,-5.515380859375,-1.111083984375
0.103,4.254150390625,-6.115966796875,-0.270263671875
0.1035,3.493408203125,-6.396240234375,0.810791015625
0.104,2.172119140625,-6.596435546875,2.252197265625
0.1045,0.810791015625,-6.836669921875,3.813720703125
0.105,-0.510498046875,-6.796630859375,5.054931640625
0.1055,-1.271240234375,-6.836669921875,5.815673828125
0.106,-2.112060546875,-6.476318359375,6.536376953125
0.1065,-3.353271484375,-5.395263671875,6.976806640625
0.107,-4.714599609375,-3.993896484375,7.177001953125
0.1075,-5.795654296875,-2.472412109375,7.096923828125
0.108,-6.396240234375,-1.231201171875,6.776611328125
0.1085,-6.476318359375,-0.430419921875,6.416259765625
0.109,-6.356201171875,0.610595703125,5.695556640625
0.1095,-5.995849609375,1.851806640625,4.414306640625
0.11,-5.715576171875,3.173095703125,3.012939453125
0.1105,-5.275146484375,4.454345703125,1.531494140625
0.111,-4.834716796875,5.175048828125,0.490478515625
0.1115,-4.194091796875,5.615478515625,-0.470458984375
0.112,-3.233154296875,5.815673828125,-1.511474609375
0.1125,-1.911865234375,5.895751953125,-2.992919921875
0.113,-0.590576171875,6.015869140625,-4.434326171875
0.1135,0.530517578125,5.895751953125,-5.435302734375
0.114,1.171142578125,5.935791015625,-6.115966796875
0.1145,2.052001953125,5.415283203125,-6.596435546875
0.115,3.333251953125,4.214111328125,-6.956787109375
0.1155,4.534423828125,2.892822265625,-7.076904296875
0.116,5.455322265625,1.451416015625,-6.916748046875
0.1165,5.855712890625,0.450439453125,-6.676513671875
0.117,5.895751953125,-0.430419921875,-6.236083984375
0.1175,5.695556640625,-1.311279296875,-5.475341796875
0.118,5.375244140625,-2.512451171875,-4.234130859375
0.1185,5.094970703125,-3.873779296875,-2.872802734375
0.119,4.734619140625,-4.954833984375,-1.591552734375
0.1195,4.334228515625,-5.635498046875,-0.670654296875
0.12,3.733642578125,-6.035888671875,0.250244140625
0.1205,2.772705078125,-6.276123046875,1.331298828125
0.121,1.571533203125,-6.516357421875,2.732666015625
0.1215,0.210205078125,-6.556396484375,4.134033203125
0.122,-0.670654296875,-6.596435546875,5.054931640625
0.1225,-1.351318359375,-6.596435546875,5.815673828125
0.123,-2.352294921875,-6.035888671875,6.376220703125
0.1235,-3.713623046875,-4.794677734375,6.696533203125
0.124,-4.834716796875,-3.473388671875,6.856689453125
0.1245,-5.715576171875,-2.112060546875,6.696533203125
0.125,-6.075927734375,-1.231201171875,6.456298828125
0.1255,-6.115966796875,-0.430419921875,6.055908203125
0.126,-5.875732421875,0.650634765625,5.175048828125
0.1265,-5.715576171875,1.891845703125,3.973876953125
0.127,-5.435302734375,3.253173828125,2.652587890625
0.1275,-5.074951171875,4.254150390625,1.411376953125
0.128,-4.674560546875,4.934814453125,0.570556640625
0.1285,-3.993896484375,5.255126953125,-0.430419921875
0.129,-2.872802734375,5.455322265625,-1.671630859375
0.1295,-1.671630859375,5.735595703125,-3.193115234375
0.13,-0.510498046875,5.815673828125,-4.434326171875
0.1305,0.370361328125,5.935791015625,-5.275146484375
0.131,1.131103515625,5.775634765625,-5.955810546875
0.1315,2.252197265625,4.974853515625,-6.436279296875
0.132,3.533447265625,3.733642578125,-6.716552734375
0.1325,4.654541015625,2.372314453125,-6.796630859375
0.133,5.335205078125,1.171142578125,-6.596435546875
0.1335,5.615478515625,0.330322265625,-6.396240234375
0.134,5.535400390625,-0.550537109375,-5.795654296875
0.1345,5.255126953125,-1.591552734375,-4.834716796875
0.135,5.094970703125,-2.912841796875,-3.593505859375
0.1355,4.814697265625,-4.154052734375,-2.272216796875
0.136,4.494384765625,-4.994873046875,-1.271240234375
0.1365,4.093994140625,-5.595458984375,-0.510498046875
0.137,3.333251953125,-5.915771484375,0.570556640625
0.1375,2.172119140625,-6.156005859375,1.851806640625
0.138,0.970947265625,-6.316162109375,3.293212890625
0.1385,0.010009765625,-6.396240234375,4.334228515625
0.139,-0.790771484375,-6.476318359375,5.135009765625
0.1395,-1.631591796875,-6.156005859375,5.775634765625
0.14,-2.832763671875,-5.195068359375,6.216064453125
0.1405,-3.993896484375,-4.033935546875,6.456298828125
0.141,-5.034912109375,-2.752685546875,6.456298828125
0.1415,-5.595458984375,-1.671630859375,6.256103515625
0.142,-5.755615234375,-0.990966796875,6.055908203125
0.1425,-5.635498046875,-0.150146484375,5.415283203125
0.143,-5.435302734375,0.970947265625,4.454345703125
0.1435,-5.275146484375,2.252197265625,3.253173828125
0.144,-4.994873046875,3.373291015625,2.052001953125
0.1445,-4.674560546875,4.134033203125,1.171142578125
0.145,-4.234130859375,4.614501953125,0.370361328125
0.1455,-3.513427734375,4.934814453125,-0.710693359375
0.146,-2.432373046875,5.295166015625,-1.951904296875
0.1465,-1.271240234375,5.455322265625,-3.233154296875
0.147,-0.510498046875,5.615478515625,-4.234130859375
0.1475,0.290283203125,5.735595703125,-5.074951171875
0.148,1.171142578125,5.375244140625,-5.675537109375
0.1485,2.332275390625,4.414306640625,-6.075927734375
0.149,3.533447265625,3.293212890625,-6.356201171875
0.1495,4.454345703125,2.052001953125,-6.316162109375
0.15,4.934814453125,1.211181640625,-6.276123046875
0.1505,5.094970703125,0.490478515625,-5.995849609375
0.151,5.054931640625,-0.470458984375,-5.395263671875
0.1515,4.974853515625,-1.551513671875,-4.514404296875
0.152,4.814697265625,-2.832763671875,-3.353271484375
0.1525,4.534423828125,-3.873779296875,-2.272216796875
0.153,4.374267578125,-4.674560546875,-1.471435546875
0.1535,3.893798828125,-5.195068359375,-0.670654296875
0.154,3.052978515625,-5.475341796875,0.530517578125
0.1545,2.092041015625,-5.915771484375,1.851806640625
0.155,1.010986328125,-6.075927734375,3.052978515625
0.1555,0.290283203125,-6.356201171875,4.013916015625
0.156,-0.590576171875,-6.396240234375,4.854736328125
0.1565,-1.591552734375,-5.835693359375,5.455322265625
0.157,-2.832763671875,-4.834716796875,5.895751953125
0.1575,-3.953857421875,-3.673583984375,6.095947265625
0.158,-4.794677734375,-2.552490234375,6.095947265625
0.1585,-5.195068359375,-1.831787109375,6.055908203125
0.159,-5.315185546875,-1.111083984375,5.735595703125
0.1595,-5.275146484375,-0.150146484375,5.014892578125
0.16,-5.195068359375,1.051025390625,4.134033203125
0.1605,-5.074951171875,2.252197265625,2.932861328125
0.161,-4.834716796875,3.173095703125,2.011962890625
0.1615,-4.594482421875,3.853759765625,1.211181640625
0.162,-4.033935546875,4.414306640625,0.370361328125
0.1625,-3.193115234375,4.774658203125,-0.870849609375
0.163,-2.152099609375,5.135009765625,-2.232177734375
0.1635,-1.231201171875,5.335205078125,-3.353271484375
0.164,-0.550537109375,5.615478515625,-4.234130859375
0.1645,0.370361328125,5.495361328125,-4.994873046875
0.165,1.451416015625,4.814697265625,-5.555419921875
0.1655,2.612548828125,3.893798828125,-5.955810546875
0.166,3.693603515625,2.692626953125,-6.115966796875
0.1665,4.414306640625,1.771728515625,-6.115966796875
0.167,4.734619140625,1.091064453125,-6.075927734375
0.1675,4.814697265625,0.290283203125,-5.635498046875
0.168,4.774658203125,-0.790771484375,-4.874755859375
0.1685,4.774658203125,-2.072021484375,-3.913818359375
0.169,4.614501953125,-3.193115234375,-2.832763671875
0.1695,4.414306640625,-4.114013671875,-1.991943359375
0.17,4.134033203125,-4.674560546875,-1.191162109375
0.1705,3.533447265625,-5.155029296875,-0.230224609375
0.171,2.612548828125,-5.595458984375,1.091064453125
0.1715,1.571533203125,-5.915771484375,2.412353515625
0.172,0.770751953125,-6.156005859375,3.453369140625
0.1725,0.050048828125,-6.356201171875,4.414306640625
0.173,-0.990966796875,-6.075927734375,5.094970703125
0.1735,-2.192138671875,-5.195068359375,5.615478515625
0.174,-3.473388671875,-4.154052734375,6.015869140625
0.1745,-4.434326171875,-2.952880859375,6.055908203125
0.175,-4.994873046875,-2.112060546875,6.055908203125
0.1755,-5.235107421875,-1.431396484375,5.815673828125
0.176,-5.235107421875,-0.550537109375,5.255126953125
0.1765,-5.155029296875,0.610595703125,4.414306640625
0.177,-5.114990234375,1.891845703125,3.293212890625
0.1775,-4.954833984375,2.932861328125,2.252197265625
0.178,-4.674560546875,3.773681640625,1.411376953125
0.1785,-4.234130859375,4.294189453125,0.610595703125
0.179,-3.473388671875,4.654541015625,-0.590576171875
0.1795,-2.512451171875,5.135009765625,-1.911865234375
0.18,-1.471435546875,5.335205078125,-3.113037109375
0.1805,-0.710693359375,5.575439453125,-4.073974609375
0.181,0.130126953125,5.615478515625,-4.874755859375
0.1815,1.211181640625,5.094970703125,-5.475341796875
0.182,2.412353515625,4.093994140625,-5.915771484375
0.1825,3.573486328125,2.892822265625,-6.156005859375
0.183,4.414306640625,1.811767578125,-6.156005859375
0.1835,4.814697265625,1.091064453125,-6.115966796875
0.184,4.934814453125,0.330322265625,-5.755615234375
0.1845,4.814697265625,-0.750732421875,-5.034912109375
0.185,4.814697265625,-1.951904296875,-4.033935546875
0.1855,4.614501953125,-3.193115234375,-2.912841796875
0.186,4.414306640625,-4.033935546875,-1.951904296875
0.1865,4.174072265625,-4.754638671875,-1.191162109375
0.187,3.613525390625,-5.195068359375,-0.310302734375
0.1875,2.652587890625,-5.555419921875,1.010986328125
0.188,1.611572265625,-5.915771484375,2.372314453125
