wavelength,x,y,z
0.0,3.853759765625,-0.230224609375,-4.033935546875
0.0005,2.932861328125,0.770751953125,-4.154052734375
0.001,2.572509765625,1.491455078125,-4.474365234375
0.0015,1.571533203125,2.692626953125,-4.634521484375
0.002,0.970947265625,3.133056640625,-4.434326171875
0.0025,0.050048828125,3.853759765625,-4.194091796875
0.003,-0.790771484375,4.013916015625,-3.553466796875
0.0035,-1.551513671875,4.334228515625,-3.113037109375
0.004,-2.712646484375,4.494384765625,-2.192138671875
0.0045,-3.673583984375,4.654541015625,-1.391357421875
0.005,-4.033935546875,4.214111328125,-0.590576171875
0.0055,-4.634521484375,4.134033203125,0.130126953125
0.006,-4.594482421875,3.213134765625,0.970947265625
0.0065,-4.834716796875,2.852783203125,1.531494140625
0.007,-4.994873046875,1.891845703125,2.692626953125
0.0075,-4.874755859375,1.251220703125,3.173095703125
0.008,-4.514404296875,0.250244140625,3.813720703125
0.0085,-4.033935546875,-0.670654296875,4.134033203125
0.009,-3.273193359375,-1.591552734375,4.294189453125
0.0095,-2.712646484375,-2.432373046875,4.494384765625
0.01,-1.871826171875,-3.553466796875,4.734619140625
0.0105,-1.071044921875,-3.833740234375,4.214111328125
0.011,-0.310302734375,-4.514404296875,4.134033203125
0.0115,0.610595703125,-4.594482421875,3.333251953125
0.012,1.331298828125,-4.954833984375,2.932861328125
0.0125,2.572509765625,-5.114990234375,1.931884765625
0.013,3.373291015625,-5.195068359375,1.251220703125
0.0135,3.813720703125,-4.634521484375,0.290283203125
0.014,4.214111328125,-4.514404296875,-0.310302734375
0.0145,4.214111328125,-3.633544921875,-1.151123046875
0.015,4.414306640625,-3.193115234375,-1.791748046875
0.0155,4.654541015625,-2.232177734375,-2.952880859375
0.016,4.334228515625,-1.511474609375,-3.353271484375
0.0165,4.053955078125,-0.590576171875,-4.033935546875
0.017,3.373291015625,0.370361328125,-4.234130859375
0.0175,2.812744140625,1.211181640625,-4.434326171875
0.018,2.052001953125,2.212158203125,-4.554443359375
0.0185,1.291259765625,3.173095703125,-4.834716796875
0.019,0.330322265625,3.493408203125,-4.154052734375
0.0195,-0.350341796875,4.134033203125,-4.114013671875
0.02,-1.351318359375,4.134033203125,-3.153076171875
0.0205,-2.072021484375,4.494384765625,-2.712646484375
0.021,-3.353271484375,4.694580078125,-1.671630859375
0.0215,-3.953857421875,4.534423828125,-0.950927734375
0.022,-4.354248046875,4.013916015625,0.010009765625
0.0225,-4.674560546875,3.733642578125,0.570556640625
0.023,-4.754638671875,2.932861328125,1.371337890625
0.0235,-4.834716796875,2.332275390625,2.052001953125
0.024,-5.114990234375,1.531494140625,3.133056640625
0.0245,-4.514404296875,0.570556640625,3.413330078125
0.025,-4.354248046875,-0.310302734375,4.053955078125
0.0255,-3.473388671875,-1.311279296875,4.134033203125
0.026,-3.072998046875,-1.991943359375,4.454345703125
0.0265,-2.192138671875,-2.992919921875,4.534423828125
0.027,-1.431396484375,-3.793701171875,4.614501953125
0.0275,-0.510498046875,-4.114013671875,3.893798828125
0.028,0.130126953125,-4.634521484375,3.853759765625
0.0285,1.171142578125,-4.674560546875,2.932861328125
0.029,1.851806640625,-4.954833984375,2.532470703125
0.0295,3.133056640625,-5.155029296875,1.451416015625
0.03,3.533447265625,-4.834716796875,0.770751953125
0.0305,3.973876953125,-4.514404296875,0.010009765625
0.031,4.134033203125,-3.993896484375,-0.710693359375
0.0315,4.294189453125,-3.313232421875,-1.471435546875
0.032,4.374267578125,-2.672607421875,-2.232177734375
0.0325,4.654541015625,-1.951904296875,-3.233154296875
0.033,3.893798828125,-0.950927734375,-3.553466796875
0.0335,3.813720703125,-0.190185546875,-4.154052734375
0.034,2.852783203125,0.890869140625,-4.154052734375
0.0345,2.492431640625,1.571533203125,-4.474365234375
0.035,1.571533203125,2.652587890625,-4.594482421875
0.0355,0.890869140625,3.333251953125,-4.514404296875
0.036,0.010009765625,3.653564453125,-3.913818359375
0.0365,-0.710693359375,4.093994140625,-3.713623046875
0.037,-1.831787109375,4.214111328125,-2.712646484375
0.0375,-2.512451171875,4.454345703125,-2.272216796875
0.038,-3.713623046875,4.654541015625,-1.311279296875
0.0385,-3.993896484375,4.093994140625,-0.510498046875
0.039,-4.474365234375,3.893798828125,0.130126953125
0.0395,-4.554443359375,3.173095703125,0.930908203125
0.04,-4.754638671875,2.612548828125,1.651611328125
0.0405,-4.794677734375,1.851806640625,2.412353515625
0.041,-4.914794921875,1.131103515625,3.253173828125
0.0415,-4.114013671875,0.010009765625,3.533447265625
0.042,-4.033935546875,-0.630615234375,4.134033203125
0.0425,-3.032958984375,-1.671630859375,4.134033203125
0.043,-2.672607421875,-2.312255859375,4.414306640625
0.0435,-1.751708984375,-3.353271484375,4.494384765625
0.044,-0.990966796875,-3.833740234375,4.134033203125
0.0445,-0.230224609375,-4.194091796875,3.813720703125
0.045,0.610595703125,-4.514404296875,3.333251953125
0.0455,1.571533203125,-4.674560546875,2.532470703125
0.046,2.252197265625,-4.874755859375,1.971923828125
0.0465,3.253173828125,-4.994873046875,1.171142578125
0.047,3.453369140625,-4.354248046875,0.330322265625
0.0475,3.893798828125,-4.314208984375,-0.190185546875
0.048,3.973876953125,-3.433349609375,-1.071044921875
0.0485,4.174072265625,-3.072998046875,-1.711669921875
0.049,4.294189453125,-2.272216796875,-2.592529296875
0.0495,4.214111328125,-1.591552734375,-3.193115234375
0.05,3.533447265625,-0.510498046875,-3.553466796875
0.0505,3.373291015625,0.170166015625,-3.953857421875
0.051,2.492431640625,1.211181640625,-4.073974609375
0.0515,2.172119140625,1.851806640625,-4.354248046875
0.052,1.291259765625,2.852783203125,-4.474365234375
0.0525,0.450439453125,3.173095703125,-3.953857421875
0.053,-0.230224609375,3.693603515625,-3.793701171875
0.0535,-1.231201171875,3.933837890625,-3.113037109375
0.054,-2.072021484375,4.174072265625,-2.472412109375
0.0545,-2.872802734375,4.334228515625,-1.791748046875
0.055,-3.673583984375,4.414306640625,-1.111083984375
0.0555,-3.873779296875,3.733642578125,-0.270263671875
0.056,-4.314208984375,3.653564453125,0.290283203125
0.0565,-4.354248046875,2.692626953125,1.211181640625
0.057,-4.634521484375,2.332275390625,1.771728515625
0.0575,-4.674560546875,1.531494140625,2.692626953125
0.058,-4.434326171875,0.690673828125,3.173095703125
0.0585,-3.873779296875,-0.230224609375,3.573486328125
0.059,-3.473388671875,-0.990966796875,3.893798828125
0.0595,-2.672607421875,-1.951904296875,4.053955078125
0.06,-2.272216796875,-2.552490234375,4.214111328125
0.0605,-1.431396484375,-3.393310546875,4.214111328125
0.061,-0.630615234375,-3.673583984375,3.653564453125
0.0615,-0.070068359375,-4.154052734375,3.573486328125
0.062,1.010986328125,-4.314208984375,2.652587890625
0.0625,1.691650390625,-4.634521484375,2.292236328125
0.063,2.572509765625,-4.634521484375,1.531494140625
0.0635,3.093017578125,-4.554443359375,0.930908203125
0.064,3.333251953125,-3.993896484375,0.170166015625
0.0645,3.653564453125,-3.873779296875,-0.390380859375
0.065,3.773681640625,-3.072998046875,-1.311279296875
0.0655,3.973876953125,-2.712646484375,-1.791748046875
0.066,4.134033203125,-1.951904296875,-2.712646484375
0.0665,3.613525390625,-1.111083984375,-3.032958984375
0.067,3.333251953125,-0.310302734375,-3.553466796875
0.0675,2.772705078125,0.530517578125,-3.713623046875
0.068,2.252197265625,1.331298828125,-3.993896484375
0.0685,1.771728515625,2.052001953125,-4.154052734375
0.069,1.051025390625,2.732666015625,-4.114013671875
0.0695,0.210205078125,3.052978515625,-3.593505859375
0.07,-0.390380859375,3.573486328125,-3.513427734375
0.0705,-1.551513671875,3.693603515625,-2.552490234375
0.071,-2.192138671875,4.053955078125,-2.272216796875
0.0715,-3.032958984375,4.093994140625,-1.431396484375
0.072,-3.433349609375,3.853759765625,-0.790771484375
0.0725,-3.753662109375,3.453369140625,-0.150146484375
0.073,-3.993896484375,3.093017578125,0.490478515625
0.0735,-4.234130859375,2.492431640625,1.331298828125
0.074,-4.354248046875,1.971923828125,1.931884765625
0.0745,-4.514404296875,1.291259765625,2.732666015625
0.075,-3.833740234375,0.290283203125,3.012939453125
0.0755,-3.753662109375,-0.350341796875,3.573486328125
0.076,-2.872802734375,-1.391357421875,3.693603515625
0.0765,-2.592529296875,-2.072021484375,4.093994140625
0.077,-1.831787109375,-2.752685546875,3.973876953125
0.0775,-1.151123046875,-3.353271484375,3.853759765625
0.078,-0.430419921875,-3.593505859375,3.413330078125
0.0785,0.290283203125,-4.114013671875,3.173095703125
0.079,1.331298828125,-4.234130859375,2.292236328125
0.0795,1.931884765625,-4.514404296875,1.971923828125
0.08,2.692626953125,-4.514404296875,1.251220703125
0.0805,2.932861328125,-4.154052734375,0.570556640625
0.081,3.333251953125,-3.913818359375,0.010009765625
0.0815,3.493408203125,-3.233154296875,-0.750732421875
0.082,3.813720703125,-2.872802734375,-1.471435546875
0.0825,3.813720703125,-2.232177734375,-2.112060546875
0.083,3.893798828125,-1.591552734375,-2.792724609375
0.0835,3.173095703125,-0.630615234375,-3.072998046875
0.084,3.173095703125,0.010009765625,-3.593505859375
0.0845,2.252197265625,1.091064453125,-3.713623046875
0.085,2.092041015625,1.651611328125,-4.114013671875
0.0855,1.251220703125,2.412353515625,-3.993896484375
0.086,0.570556640625,2.852783203125,-3.793701171875
0.0865,-0.150146484375,3.213134765625,-3.393310546875
0.087,-0.990966796875,3.613525390625,-2.952880859375
0.0875,-1.991943359375,3.893798828125,-2.272216796875
0.088,-2.592529296875,3.973876953125,-1.751708984375
0.0885,-3.313232421875,3.973876953125,-1.111083984375
0.089,-3.553466796875,3.453369140625,-0.350341796875
0.0895,-3.913818359375,3.333251953125,0.250244140625
0.09,-4.114013671875,2.532470703125,1.131103515625
0.0905,-4.394287109375,2.212158203125,1.771728515625
0.091,-4.354248046875,1.371337890625,2.412353515625
0.0915,-4.194091796875,0.690673828125,3.052978515625
0.092,-3.553466796875,-0.310302734375,3.333251953125
0.0925,-3.353271484375,-0.990966796875,3.813720703125
0.093,-2.432373046875,-2.072021484375,3.933837890625
0.0935,-2.072021484375,-2.592529296875,4.093994140625
0.094,-1.271240234375,-3.313232421875,3.973876953125
0.0945,-0.550537109375,-3.673583984375,3.573486328125
0.095,0.170166015625,-4.033935546875,3.253173828125
0.0955,1.171142578125,-4.314208984375,2.532470703125
0.096,1.971923828125,-4.714599609375,1.891845703125
0.0965,2.572509765625,-4.514404296875,1.291259765625
0.097,3.173095703125,-4.514404296875,0.650634765625
0.0975,3.333251953125,-3.753662109375,-0.110107421875
0.098,3.653564453125,-3.593505859375,-0.630615234375
0.0985,3.813720703125,-2.712646484375,-1.631591796875
0.099,3.973876953125,-2.352294921875,-2.152099609375
0.0995,3.853759765625,-1.511474609375,-2.832763671875
0.1,3.533447265625,-0.750732421875,-3.233154296875
0.1005,2.932861328125,0.170166015625,-3.553466796875
0.101,2.572509765625,0.890869140625,-3.833740234375
0.1015,1.851806640625,1.891845703125,-4.114013671875
0.102,1.371337890625,2.332275390625,-4.073974609375
0.1025,0.610595703125,3.052978515625,-3.993896484375
0.103,-0.190185546875,3.293212890625,-3.433349609375
0.1035,-0.910888671875,3.733642578125,-3.193115234375
0.104,-2.072021484375,3.853759765625,-2.392333984375
0.1045,-2.832763671875,4.174072265625,-1.791748046875
0.105,-3.353271484375,3.893798828125,-1.111083984375
0.1055,-3.873779296875,3.853759765625,-0.390380859375
0.106,-3.993896484375,3.173095703125,0.370361328125
0.1065,-4.274169921875,2.892822265625,0.970947265625
0.107,-4.514404296875,2.052001953125,1.971923828125
0.1075,-4.514404296875,1.571533203125,2.492431640625
0.108,-4.354248046875,0.650634765625,3.173095703125
0.1085,-3.833740234375,-0.270263671875,3.533447265625
0.109,-3.353271484375,-1.031005859375,3.853759765625
0.1095,-2.712646484375,-1.951904296875,4.053955078125
0.11,-2.072021484375,-2.872802734375,4.334228515625
0.1105,-1.311279296875,-3.273193359375,3.973876953125
0.111,-0.630615234375,-3.953857421875,3.973876953125
0.1115,0.250244140625,-4.114013671875,3.213134765625
0.112,0.970947265625,-4.594482421875,2.892822265625
0.1125,2.172119140625,-4.794677734375,1.971923828125
0.113,2.692626953125,-4.954833984375,1.411376953125
0.1135,3.333251953125,-4.514404296875,0.570556640625
0.114,3.773681640625,-4.314208984375,0.010009765625
0.1145,3.853759765625,-3.553466796875,-0.830810546875
0.115,4.053955078125,-3.153076171875,-1.471435546875
0.1155,4.334228515625,-2.312255859375,-2.552490234375
0.116,4.053955078125,-1.591552734375,-2.912841796875
0.1165,3.933837890625,-0.710693359375,-3.673583984375
0.117,3.173095703125,0.210205078125,-3.793701171875
0.1175,2.812744140625,0.930908203125,-4.154052734375
0.118,1.931884765625,1.971923828125,-4.274169921875
0.1185,1.331298828125,2.852783203125,-4.514404296875
0.119,0.450439453125,3.173095703125,-3.993896484375
0.1195,-0.190185546875,3.813720703125,-3.953857421875
0.12,-1.151123046875,3.853759765625,-3.153076171875
0.1205,-1.911865234375,4.174072265625,-2.712646484375
0.121,-3.193115234375,4.414306640625,-1.671630859375
0.1215,-3.713623046875,4.294189453125,-0.990966796875
0.122,-4.194091796875,3.973876953125,-0.190185546875
0.1225,-4.434326171875,3.533447265625,0.490478515625
0.123,-4.514404296875,2.932861328125,1.211181640625
0.1235,-4.674560546875,2.252197265625,1.931884765625
0.124,-4.954833984375,1.531494140625,2.932861328125
0.1245,-4.354248046875,0.610595703125,3.293212890625
0.125,-4.314208984375,-0.190185546875,3.973876953125
0.1255,-3.353271484375,-1.231201171875,4.013916015625
0.126,-3.072998046875,-1.871826171875,4.334228515625
0.1265,-2.112060546875,-2.952880859375,4.494384765625
0.127,-1.431396484375,-3.673583984375,4.494384765625
0.1275,-0.510498046875,-4.033935546875,3.893798828125
0.128,0.130126953125,-4.554443359375,3.773681640625
0.1285,1.131103515625,-4.674560546875,2.852783203125
0.129,1.891845703125,-4.994873046875,2.412353515625
0.1295,3.173095703125,-5.155029296875,1.411376953125
0.13,3.533447265625,-4.754638671875,0.650634765625
0.1305,4.013916015625,-4.514404296875,0.010009765625
0.131,4.134033203125,-3.873779296875,-0.790771484375
0.1315,4.294189453125,-3.313232421875,-1.511474609375
0.132,4.374267578125,-2.552490234375,-2.352294921875
0.1325,4.614501953125,-1.871826171875,-3.273193359375
0.133,3.893798828125,-0.750732421875,-3.593505859375
0.1335,3.813720703125,0.010009765625,-4.194091796875
0.134,2.812744140625,1.010986328125,-4.194091796875
0.1345,2.412353515625,1.691650390625,-4.514404296875
0.135,1.491455078125,2.852783203125,-4.674560546875
0.1355,0.690673828125,3.453369140625,-4.474365234375
0.136,-0.190185546875,3.813720703125,-3.953857421875
0.1365,-0.950927734375,4.134033203125,-3.673583984375
0.137,-1.991943359375,4.294189453125,-2.712646484375
0.1375,-2.752685546875,4.534423828125,-2.192138671875
0.138,-3.953857421875,4.774658203125,-1.191162109375
0.1385,-4.194091796875,4.134033203125,-0.310302734375
0.139,-4.674560546875,3.973876953125,0.290283203125
0.1395,-4.754638671875,3.133056640625,1.211181640625
0.14,-4.874755859375,2.572509765625,1.891845703125
0.1405,-4.954833984375,1.731689453125,2.732666015625
0.141,-4.994873046875,0.970947265625,3.533447265625
0.1415,-4.194091796875,-0.150146484375,3.853759765625
0.142,-4.033935546875,-0.830810546875,4.374267578125
0.1425,-2.952880859375,-1.991943359375,4.334228515625
0.143,-2.552490234375,-2.592529296875,4.534423828125
0.1435,-1.591552734375,-3.753662109375,4.654541015625
0.144,-0.670654296875,-4.154052734375,4.174072265625
0.1445,0.050048828125,-4.594482421875,3.853759765625
0.145,0.930908203125,-4.874755859375,3.213134765625
0.1455,1.931884765625,-4.954833984375,2.452392578125
0.146,2.652587890625,-5.074951171875,1.811767578125
0.1465,3.653564453125,-5.195068359375,0.970947265625
0.147,3.853759765625,-4.474365234375,0.050048828125
0.1475,4.294189453125,-4.354248046875,-0.510498046875
0.148,4.294189453125,-3.353271484375,-1.431396484375
0.1485,4.454345703125,-2.952880859375,-2.072021484375
0.149,4.534423828125,-2.031982421875,-3.032958984375
0.1495,4.414306640625,-1.271240234375,-3.593505859375
0.15,3.653564453125,-0.190185546875,-3.913818359375
0.1505,3.413330078125,0.530517578125,-4.354248046875
0.151,2.412353515625,1.651611328125,-4.434326171875
0.1515,2.011962890625,2.252197265625,-4.634521484375
0.152,1.051025390625,3.333251953125,-4.754638671875
0.1525,0.130126953125,3.653564453125,-4.114013671875
0.153,-0.590576171875,4.093994140625,-3.913818359375
0.1535,-1.671630859375,4.454345703125,-3.072998046875
0.154,-2.592529296875,4.574462890625,-2.352294921875
0.1545,-3.393310546875,4.614501953125,-1.591552734375
0.155,-4.234130859375,4.654541015625,-0.790771484375
0.1555,-4.434326171875,3.853759765625,0.130126953125
0.156,-4.834716796875,3.733642578125,0.690673828125
0.1565,-4.874755859375,2.612548828125,1.811767578125
0.157,-4.994873046875,2.212158203125,2.292236328125
0.1575,-4.994873046875,1.251220703125,3.333251953125
0.158,-4.634521484375,0.330322265625,3.773681640625
0.1585,-3.993896484375,-0.630615234375,4.134033203125
0.159,-3.513427734375,-1.471435546875,4.414306640625
0.1595,-2.512451171875,-2.592529296875,4.494384765625
0.16,-1.991943359375,-3.193115234375,4.494384765625
0.1605,-1.111083984375,-4.154052734375,4.534423828125
0.161,-0.150146484375,-4.354248046875,3.813720703125
0.1615,0.490478515625,-4.714599609375,3.613525390625
0.162,1.651611328125,-4.914794921875,2.572509765625
0.1625,2.372314453125,-5.074951171875,2.052001953125
0.163,3.213134765625,-4.994873046875,1.211181640625
0.1635,3.813720703125,-4.874755859375,0.490478515625
0.164,3.933837890625,-4.154052734375,-0.350341796875
0.1645,4.254150390625,-3.913818359375,-0.910888671875
0.165,4.334228515625,-2.872802734375,-1.991943359375
0.1655,4.414306640625,-2.472412109375,-2.432373046875
0.166,4.494384765625,-1.591552734375,-3.393310546875
0.1665,3.853759765625,-0.630615234375,-3.713623046875
0.167,3.453369140625,0.250244140625,-4.114013671875
0.1675,2.772705078125,1.131103515625,-4.354248046875
0.168,2.052001953125,2.052001953125,-4.514404296875
0.1685,1.451416015625,2.652587890625,-4.514404296875
0.169,0.610595703125,3.493408203125,-4.514404296875
0.1695,-0.350341796875,3.773681640625,-3.713623046875
0.17,-0.990966796875,4.214111328125,-3.593505859375
0.1705,-2.312255859375,4.374267578125,-2.392333984375
0.171,-2.912841796875,4.574462890625,-1.991943359375
0.1715,-3.793701171875,4.494384765625,-1.071044921875
0.172,-4.274169921875,4.174072265625,-0.350341796875
0.1725,-4.434326171875,3.573486328125,0.490478515625
0.173,-4.754638671875,3.173095703125,1.131103515625
0.1735,-4.874755859375,2.252197265625,2.212158203125
0.174,-4.834716796875,1.691650390625,2.652587890625
0.1745,-4.834716796875,0.810791015625,3.533447265625
0.175,-4.033935546875,-0.270263671875,3.813720703125
0.1755,-3.793701171875,-1.031005859375,4.214111328125
0.176,-2.872802734375,-2.152099609375,4.334228515625
0.1765,-2.272216796875,-2.952880859375,4.534423828125
0.177,-1.471435546875,-3.553466796875,4.294189453125
0.1775,-0.670654296875,-4.154052734375,4.174072265625
0.178,0.210205078125,-4.274169921875,3.453369140625
0.1785,0.890869140625,-4.754638671875,3.213134765625
0.179,2.172119140625,-4.834716796875,2.052001953125
0.1795,2.692626953125,-4.954833984375,1.651611328125
0.18,3.453369140625,-4.834716796875,0.810791015625
0.1805,3.733642578125,-4.354248046875,0.090087890625
0.181,3.933837890625,-3.873779296875,-0.630615234375
0.1815,4.093994140625,-3.273193359375,-1.351318359375
0.182,4.334228515625,-2.592529296875,-2.232177734375
0.1825,4.134033203125,-1.951904296875,-2.712646484375
0.183,4.174072265625,-1.151123046875,-3.513427734375
0.1835,3.333251953125,-0.150146484375,-3.633544921875
0.184,3.173095703125,0.490478515625,-4.154052734375
0.1845,2.132080078125,1.611572265625,-4.194091796875
0.185,1.851806640625,2.252197265625,-4.514404296875
0.1855,0.970947265625,2.932861328125,-4.194091796875
0.186,0.210205078125,3.533447265625,-4.033935546875
0.1865,-0.630615234375,3.693603515625,-3.393310546875
0.187,-1.431396484375,4.134033203125,-3.072998046875
0.1875,-2.592529296875,4.334228515625,-2.072021484375
0.188,-3.113037109375,4.334228515625,-1.591552734375
