wavelength,x,y,z
0.0,-25.494873046875,17.667236328125,7.417236328125
0.0005,-26.415771484375,13.663330078125,12.422119140625
0.001,-25.134521484375,9.098876953125,15.665283203125
0.0015,-23.572998046875,5.175048828125,17.987548828125
0.002,-20.489990234375,0.050048828125,20.149658203125
0.0025,-19.729248046875,-4.914794921875,24.353759765625
0.003,-16.045654296875,-9.359130859375,25.074462890625
0.0035,-11.921630859375,-14.083740234375,25.675048828125
0.004,-7.997802734375,-16.526123046875,24.233642578125
0.0045,-2.272216796875,-19.248779296875,21.350830078125
0.005,2.692626953125,-21.651123046875,18.908447265625
0.0055,7.417236328125,-25.014404296875,17.587158203125
0.006,12.342041015625,-25.414794921875,13.142822265625
0.0065,16.145751953125,-24.934326171875,8.938720703125
0.007,18.267822265625,-23.372802734375,5.255126953125
0.0075,21.070556640625,-20.810302734375,-0.150146484375
0.008,24.634033203125,-19.489013671875,-5.155029296875
0.0085,25.474853515625,-16.365966796875,-9.158935546875
0.009,26.315673828125,-12.682373046875,-13.803466796875
0.0095,24.593994140625,-8.197998046875,-16.606201171875
0.01,22.592041015625,-3.753662109375,-18.928466796875
0.0105,19.909423828125,1.451416015625,-21.490966796875
0.011,19.148681640625,6.536376953125,-25.775146484375
0.0115,14.303955078125,11.140869140625,-25.534912109375
0.012,10.460205078125,15.344970703125,-25.855224609375
0.0125,6.216064453125,17.346923828125,-23.693115234375
0.013,0.290283203125,20.349853515625,-20.890380859375
0.0135,-4.754638671875,23.232666015625,-18.848388671875
0.014,-9.719482421875,25.675048828125,-16.406005859375
0.0145,-14.123779296875,25.915283203125,-12.281982421875
0.015,-17.567138671875,24.634033203125,-7.637451171875
0.0155,-19.529052734375,22.712158203125,-3.713623046875
0.016,-22.612060546875,20.269775390625,1.931884765625
0.0165,-26.215576171875,18.868408203125,6.896728515625
0.017,-25.855224609375,14.303955078125,11.140869140625
0.0175,-26.776123046875,11.100830078125,15.144775390625
0.018,-24.093505859375,6.256103515625,17.547119140625
0.0185,-21.931396484375,1.491455078125,20.149658203125
0.019,-19.489013671875,-3.793701171875,22.952392578125
0.0195,-17.967529296875,-8.998779296875,26.595947265625
0.02,-12.762451171875,-13.202880859375,25.675048828125
0.0205,-8.798583984375,-16.926513671875,25.434814453125
0.021,-4.314208984375,-18.528076171875,22.632080078125
0.0215,1.851806640625,-21.771240234375,19.869384765625
0.022,6.696533203125,-24.734130859375,18.147705078125
0.0225,11.981689453125,-25.975341796875,14.063720703125
0.023,15.625244140625,-26.215576171875,10.740478515625
0.0235,18.868408203125,-24.013427734375,5.335205078125
0.024,20.830322265625,-22.091552734375,1.411376953125
0.0245,24.033447265625,-19.889404296875,-4.114013671875
0.025,26.996337890625,-18.007568359375,-8.998779296875
0.0255,25.955322265625,-12.802490234375,-13.282958984375
0.026,26.435791015625,-9.759521484375,-16.726318359375
0.0265,23.272705078125,-4.834716796875,-18.568115234375
0.027,21.150634765625,0.250244140625,-21.490966796875
0.0275,19.148681640625,5.175048828125,-24.373779296875
0.028,16.145751953125,10.660400390625,-26.896240234375
0.0285,11.501220703125,14.303955078125,-25.975341796875
0.029,6.896728515625,17.667236328125,-24.654052734375
0.0295,2.412353515625,19.188720703125,-21.811279296875
0.03,-3.393310546875,22.592041015625,-19.529052734375
0.0305,-8.197998046875,25.434814453125,-17.647216796875
0.031,-13.322998046875,25.554931640625,-12.682373046875
0.0315,-16.446044921875,25.875244140625,-9.959716796875
0.032,-19.088623046875,22.912353515625,-4.394287109375
0.0325,-21.290771484375,21.110595703125,-0.310302734375
0.033,-24.333740234375,19.228759765625,4.654541015625
0.0335,-26.615966796875,16.506103515625,9.659423828125
0.034,-25.414794921875,11.501220703125,13.583251953125
0.0345,-25.294677734375,8.177978515625,16.786376953125
0.035,-22.131591796875,3.653564453125,18.187744140625
0.0355,-20.249755859375,-1.711669921875,21.671142578125
0.036,-18.528076171875,-6.276123046875,24.393798828125
0.0365,-14.524169921875,-11.601318359375,25.755126953125
0.037,-10.840576171875,-14.684326171875,25.194580078125
0.0375,-5.635498046875,-17.567138671875,22.912353515625
0.038,-1.231201171875,-19.248779296875,20.229736328125
0.0385,4.013916015625,-22.612060546875,18.548095703125
0.039,9.098876953125,-25.134521484375,16.105712890625
0.0395,13.623291015625,-24.654052734375,11.060791015625
0.04,16.546142578125,-24.774169921875,8.378173828125
0.0405,18.748291015625,-21.891357421875,3.253173828125
0.041,21.711181640625,-20.249755859375,-1.471435546875
0.0415,24.313720703125,-18.728271484375,-5.635498046875
0.042,25.915283203125,-15.164794921875,-10.760498046875
0.0425,24.914306640625,-10.880615234375,-14.083740234375
0.043,23.833251953125,-6.996826171875,-16.966552734375
0.0435,21.030517578125,-2.712646484375,-18.407958984375
0.044,19.709228515625,2.532470703125,-22.291748046875
0.0445,17.427001953125,7.177001953125,-24.694091796875
0.045,12.942626953125,12.181884765625,-25.174560546875
0.0455,9.739501953125,15.064697265625,-24.934326171875
0.046,4.174072265625,17.707275390625,-21.971435546875
0.0465,-0.590576171875,19.989501953125,-19.729248046875
0.047,-5.114990234375,23.312744140625,-18.568115234375
0.0475,-10.480224609375,25.034423828125,-15.044677734375
0.048,-14.323974609375,24.353759765625,-10.560302734375
0.0485,-17.006591796875,23.673095703125,-7.237060546875
0.049,-19.168701171875,20.990478515625,-2.392333984375
0.0495,-22.732177734375,19.589111328125,2.612548828125
0.05,-24.413818359375,17.547119140625,6.456298828125
0.0505,-25.614990234375,13.583251953125,11.661376953125
0.051,-24.654052734375,9.659423828125,14.624267578125
0.0515,-22.772216796875,5.215087890625,17.266845703125
0.052,-20.209716796875,0.730712890625,19.188720703125
0.0525,-19.408935546875,-4.354248046875,23.432861328125
0.053,-16.165771484375,-9.078857421875,24.874267578125
0.0535,-11.561279296875,-13.523193359375,24.794189453125
0.054,-8.318115234375,-16.005615234375,24.033447265625
0.0545,-2.392333984375,-18.568115234375,20.750244140625
0.055,2.452392578125,-21.330810546875,18.788330078125
0.0555,6.936767578125,-24.173583984375,17.266845703125
0.056,12.181884765625,-25.334716796875,13.262939453125
0.0565,15.665283203125,-24.413818359375,8.818603515625
0.057,18.147705078125,-23.092529296875,5.054931640625
0.0575,20.590087890625,-20.610107421875,0.050048828125
0.058,24.473876953125,-19.408935546875,-5.034912109375
0.0585,25.034423828125,-16.125732421875,-8.958740234375
0.059,25.955322265625,-12.241943359375,-13.803466796875
0.0595,24.513916015625,-8.358154296875,-16.285888671875
0.06,22.111572265625,-3.433349609375,-18.848388671875
0.0605,19.709228515625,1.411376953125,-21.210693359375
0.061,18.748291015625,6.376220703125,-25.174560546875
0.0615,14.464111328125,11.180908203125,-25.614990234375
0.062,9.899658203125,15.264892578125,-25.214599609375
0.0625,6.176025390625,17.306884765625,-23.653076171875
0.063,0.130126953125,20.109619140625,-20.409912109375
0.0635,-4.834716796875,23.192626953125,-18.728271484375
0.064,-9.559326171875,25.034423828125,-15.925537109375
0.0645,-14.123779296875,25.875244140625,-12.281982421875
0.065,-17.166748046875,24.153564453125,-7.517333984375
0.0655,-19.489013671875,22.431884765625,-3.513427734375
0.066,-22.091552734375,19.909423828125,1.731689453125
0.0665,-25.895263671875,18.828369140625,6.656494140625
0.067,-25.374755859375,14.263916015625,10.780517578125
0.0675,-26.055419921875,10.620361328125,15.104736328125
0.068,-24.013427734375,6.536376953125,17.146728515625
0.0685,-21.490966796875,1.331298828125,19.869384765625
0.069,-19.288818359375,-3.593505859375,22.552001953125
0.0695,-17.447021484375,-8.598388671875,25.675048828125
0.07,-13.082763671875,-12.922607421875,25.635009765625
0.0705,-8.398193359375,-16.526123046875,24.634033203125
0.071,-4.474365234375,-18.207763671875,22.391845703125
0.0715,1.531494140625,-21.010498046875,19.428955078125
0.072,6.336181640625,-24.333740234375,18.227783203125
0.0725,11.260986328125,-25.014404296875,13.743408203125
0.073,15.144775390625,-25.855224609375,10.820556640625
0.0735,17.867431640625,-23.412841796875,5.655517578125
0.074,20.149658203125,-21.691162109375,1.611572265625
0.0745,23.072509765625,-19.448974609375,-3.593505859375
0.075,26.195556640625,-17.847412109375,-8.318115234375
0.0755,25.354736328125,-12.962646484375,-12.442138671875
0.076,25.594970703125,-9.479248046875,-16.205810546875
0.0765,23.032470703125,-5.515380859375,-17.607177734375
0.077,20.630126953125,0.010009765625,-20.650146484375
0.0775,19.068603515625,4.694580078125,-23.853271484375
0.078,15.785400390625,9.899658203125,-25.775146484375
0.0785,12.061767578125,13.663330078125,-25.855224609375
0.079,6.976806640625,16.946533203125,-24.013427734375
0.0795,2.852783203125,18.708251953125,-21.731201171875
0.08,-2.872802734375,21.751220703125,-19.208740234375
0.0805,-7.757568359375,25.114501953125,-17.807373046875
0.081,-12.562255859375,24.674072265625,-12.642333984375
0.0815,-16.005615234375,25.434814453125,-10.079833984375
0.082,-18.247802734375,22.552001953125,-4.874755859375
0.0825,-20.970458984375,20.950439453125,-0.510498046875
0.083,-23.853271484375,19.068603515625,4.414306640625
0.0835,-26.095458984375,16.345947265625,9.379150390625
0.084,-25.254638671875,11.821533203125,13.102783203125
0.0845,-24.734130859375,7.817626953125,16.586181640625
0.085,-22.091552734375,3.973876953125,17.827392578125
0.0855,-20.009521484375,-1.631591796875,21.390869140625
0.086,-18.568115234375,-6.356201171875,24.593994140625
0.0865,-14.123779296875,-11.521240234375,25.274658203125
0.087,-11.160888671875,-14.764404296875,25.514892578125
0.0875,-5.475341796875,-17.447021484375,22.592041015625
0.088,-1.031005859375,-19.489013671875,20.349853515625
0.0885,4.134033203125,-22.612060546875,18.468017578125
0.089,9.379150390625,-25.574951171875,16.185791015625
0.0895,13.663330078125,-24.694091796875,11.020751953125
0.09,17.026611328125,-24.894287109375,7.977783203125
0.0905,18.948486328125,-21.971435546875,3.173095703125
0.091,22.231689453125,-20.249755859375,-1.911865234375
0.0915,24.674072265625,-18.528076171875,-6.156005859375
0.092,26.115478515625,-14.764404296875,-11.321044921875
0.0925,25.394775390625,-10.920654296875,-14.564208984375
0.093,23.913330078125,-6.396240234375,-17.647216796875
0.0935,21.310791015625,-2.352294921875,-19.088623046875
0.094,19.669189453125,3.052978515625,-22.772216796875
0.0945,17.427001953125,8.057861328125,-25.574951171875
0.095,12.342041015625,12.862548828125,-25.334716796875
0.0955,9.579345703125,15.865478515625,-25.534912109375
0.096,3.653564453125,18.267822265625,-22.091552734375
0.0965,-1.271240234375,20.790283203125,-19.889404296875
0.097,-5.835693359375,23.753173828125,-18.367919921875
0.0975,-11.401123046875,25.755126953125,-14.884521484375
0.098,-15.044677734375,24.794189453125,-10.239990234375
0.0985,-18.087646484375,24.033447265625,-6.556396484375
0.099,-19.849365234375,21.270751953125,-1.991943359375
0.0995,-23.532958984375,19.749267578125,3.333251953125
0.1,-25.214599609375,17.346923828125,7.417236328125
0.1005,-26.015380859375,13.062744140625,12.542236328125
0.101,-25.414794921875,9.619384765625,15.425048828125
0.1015,-23.012451171875,4.574462890625,18.147705078125
0.102,-20.489990234375,0.250244140625,19.989501953125
0.1025,-19.328857421875,-4.834716796875,23.793212890625
0.103,-16.165771484375,-9.959716796875,25.755126953125
0.1035,-11.080810546875,-14.123779296875,24.914306640625
0.104,-7.997802734375,-16.806396484375,24.513916015625
0.1045,-2.112060546875,-19.088623046875,20.950439453125
0.105,2.932861328125,-21.971435546875,18.948486328125
0.1055,7.257080078125,-24.373779296875,17.026611328125
0.106,12.782470703125,-25.695068359375,13.022705078125
0.1065,15.985595703125,-24.654052734375,8.818603515625
0.107,18.748291015625,-23.132568359375,4.494384765625
0.1075,20.790283203125,-20.570068359375,0.010009765625
0.108,24.634033203125,-19.408935546875,-5.195068359375
0.1085,25.434814453125,-16.165771484375,-9.279052734375
0.109,25.795166015625,-11.841552734375,-14.043701171875
0.1095,24.914306640625,-8.598388671875,-16.406005859375
0.11,22.031494140625,-3.233154296875,-18.888427734375
0.1105,19.869384765625,1.411376953125,-21.330810546875
0.111,18.628173828125,6.095947265625,-24.814208984375
0.1115,14.624267578125,11.341064453125,-26.015380859375
0.112,9.819580078125,15.064697265625,-25.014404296875
0.1125,6.176025390625,17.467041015625,-23.733154296875
0.113,0.450439453125,19.749267578125,-20.369873046875
0.1135,-4.674560546875,23.192626953125,-18.928466796875
0.114,-9.038818359375,24.593994140625,-15.965576171875
0.1145,-14.043701171875,25.675048828125,-12.161865234375
0.115,-16.766357421875,24.193603515625,-7.997802734375
0.1155,-19.368896484375,22.311767578125,-3.473388671875
0.116,-21.691162109375,19.869384765625,1.331298828125
0.1165,-25.334716796875,18.708251953125,6.176025390625
0.117,-25.334716796875,14.584228515625,10.380126953125
0.1175,-25.414794921875,10.380126953125,14.744384765625
0.118,-24.053466796875,7.056884765625,16.666259765625
0.1185,-21.130615234375,1.571533203125,19.268798828125
0.119,-19.408935546875,-3.233154296875,22.351806640625
0.1195,-17.326904296875,-7.757568359375,24.834228515625
0.12,-13.443115234375,-12.522216796875,25.635009765625
0.1205,-8.678466796875,-15.885498046875,24.153564453125
0.121,-4.514404296875,-18.007568359375,22.271728515625
0.1215,1.010986328125,-20.409912109375,19.228759765625
0.122,5.935791015625,-24.173583984375,18.227783203125
0.1225,10.540283203125,-24.373779296875,13.863525390625
0.123,14.864501953125,-25.374755859375,10.620361328125
0.1235,17.266845703125,-23.372802734375,6.296142578125
0.124,19.869384765625,-21.490966796875,1.731689453125
0.1245,22.552001953125,-19.328857421875,-3.233154296875
0.125,25.474853515625,-17.687255859375,-7.797607421875
0.1255,25.274658203125,-13.403076171875,-11.961669921875
0.126,24.954345703125,-9.239013671875,-15.725341796875
0.1265,23.072509765625,-5.835693359375,-17.326904296875
0.127,20.309814453125,-0.310302734375,-20.049560546875
0.1275,19.068603515625,4.494384765625,-23.653076171875
0.128,15.545166015625,9.259033203125,-24.854248046875
0.1285,12.101806640625,13.423095703125,-25.614990234375
0.129,7.136962890625,16.305908203125,-23.572998046875
0.1295,2.692626953125,18.508056640625,-21.450927734375
0.13,-2.552490234375,21.110595703125,-18.888427734375
0.1305,-7.477294921875,24.794189453125,-17.687255859375
0.131,-12.001708984375,24.313720703125,-12.762451171875
0.1315,-15.765380859375,24.874267578125,-9.639404296875
0.132,-17.687255859375,22.552001953125,-5.395263671875
0.1325,-20.489990234375,20.630126953125,-0.590576171875
0.133,-23.452880859375,18.868408203125,4.134033203125
0.1335,-25.134521484375,15.985595703125,8.738525390625
0.134,-25.134521484375,12.181884765625,12.662353515625
0.1345,-24.053466796875,7.697509765625,15.985595703125
0.135,-22.091552734375,4.174072265625,17.587158203125
0.1355,-19.569091796875,-1.271240234375,20.550048828125
0.136,-18.528076171875,-6.035888671875,24.273681640625
0.1365,-13.843505859375,-10.760498046875,24.233642578125
0.137,-10.960693359375,-14.364013671875,24.994384765625
0.1375,-5.915771484375,-16.686279296875,22.231689453125
0.138,-1.151123046875,-19.128662109375,20.189697265625
0.1385,3.613525390625,-21.731201171875,18.067626953125
0.139,8.818603515625,-24.734130859375,15.945556640625
0.1395,12.862548828125,-24.173583984375,11.381103515625
0.14,16.466064453125,-23.973388671875,7.657470703125
0.1405,18.067626953125,-21.771240234375,3.893798828125
0.141,21.310791015625,-19.889404296875,-1.431396484375
0.1415,24.153564453125,-18.407958984375,-5.715576171875
0.142,24.874267578125,-14.404052734375,-10.520263671875
0.1425,25.114501953125,-11.401123046875,-13.843505859375
0.143,23.072509765625,-6.516357421875,-16.646240234375
0.1435,21.110595703125,-2.832763671875,-18.447998046875
0.144,19.188720703125,2.372314453125,-21.611083984375
0.1445,17.427001953125,7.417236328125,-25.014404296875
0.145,12.422119140625,11.781494140625,-24.253662109375
0.1455,9.459228515625,15.104736328125,-24.734130859375
0.146,4.414306640625,17.026611328125,-21.571044921875
0.1465,-0.750732421875,19.989501953125,-19.529052734375
0.147,-5.074951171875,22.752197265625,-18.047607421875
0.1475,-10.520263671875,24.674072265625,-14.604248046875
0.148,-13.883544921875,24.193603515625,-10.880615234375
0.1485,-17.166748046875,23.032470703125,-6.396240234375
0.149,-18.768310546875,21.030517578125,-2.792724609375
0.1495,-22.171630859375,19.268798828125,2.492431640625
0.15,-24.453857421875,17.306884765625,6.776611328125
0.1505,-24.493896484375,12.742431640625,11.381103515625
0.151,-24.814208984375,10.059814453125,14.424072265625
0.1515,-22.011474609375,4.974853515625,16.706298828125
0.152,-20.209716796875,0.770751953125,19.148681640625
0.1525,-18.808349609375,-3.833740234375,22.271728515625
0.153,-16.125732421875,-9.118896484375,24.914306640625
0.1535,-11.401123046875,-12.802490234375,23.753173828125
0.154,-7.877685546875,-15.925537109375,23.512939453125
0.1545,-3.072998046875,-17.647216796875,20.429931640625
0.155,2.212158203125,-20.890380859375,18.628173828125
0.1555,6.376220703125,-23.212646484375,16.866455078125
0.156,11.701416015625,-24.333740234375,12.662353515625
0.1565,14.744384765625,-23.973388671875,9.619384765625
0.157,17.667236328125,-22.091552734375,4.534423828125
0.1575,19.669189453125,-20.289794921875,0.770751953125
0.158,23.032470703125,-18.928466796875,-4.033935546875
0.1585,24.634033203125,-16.165771484375,-8.478271484375
0.159,24.233642578125,-11.601318359375,-12.642333984375
0.1595,24.273681640625,-8.918701171875,-15.445068359375
0.16,21.270751953125,-3.833740234375,-17.447021484375
0.1605,19.669189453125,0.730712890625,-20.489990234375
0.161,18.107666015625,4.974853515625,-23.212646484375
0.1615,14.424072265625,10.380126953125,-25.014404296875
0.162,10.260009765625,13.623291015625,-24.053466796875
0.1625,5.935791015625,16.626220703125,-22.692138671875
0.163,1.291259765625,18.427978515625,-19.889404296875
0.1635,-3.833740234375,22.031494140625,-18.568115234375
0.164,-8.197998046875,23.633056640625,-15.885498046875
0.1645,-13.082763671875,24.233642578125,-11.681396484375
0.165,-15.685302734375,23.753173828125,-8.678466796875
0.1655,-18.367919921875,21.350830078125,-3.553466796875
0.166,-20.810302734375,19.589111328125,0.770751953125
0.1665,-23.773193359375,18.267822265625,5.054931640625
0.167,-24.854248046875,14.704345703125,9.779541015625
0.1675,-24.173583984375,10.300048828125,13.503173828125
0.168,-23.412841796875,7.056884765625,16.025634765625
0.1685,-20.449951171875,2.052001953125,18.027587890625
0.169,-19.288818359375,-2.752685546875,21.711181640625
0.1695,-17.006591796875,-6.956787109375,23.552978515625
0.17,-13.082763671875,-11.961669921875,24.714111328125
0.1705,-8.958740234375,-14.804443359375,23.633056640625
0.171,-4.154052734375,-17.567138671875,21.470947265625
0.1715,0.610595703125,-19.489013671875,18.828369140625
0.172,5.335205078125,-23.172607421875,17.867431640625
0.1725,9.979736328125,-23.853271484375,13.943603515625
0.173,14.223876953125,-24.093505859375,9.979736328125
0.1735,16.626220703125,-23.092529296875,6.656494140625
0.174,19.148681640625,-20.610107421875,1.651611328125
0.1745,22.151611328125,-19.048583984375,-3.072998046875
0.175,24.153564453125,-17.206787109375,-6.916748046875
0.1755,24.954345703125,-13.403076171875,-11.601318359375
0.176,23.913330078125,-9.239013671875,-14.764404296875
0.1765,22.471923828125,-5.595458984375,-17.046630859375
0.177,19.709228515625,-0.710693359375,-19.168701171875
0.1775,18.948486328125,4.134033203125,-23.212646484375
0.178,15.385009765625,8.498291015625,-23.973388671875
0.1785,11.621337890625,12.942626953125,-24.694091796875
0.179,7.697509765625,15.505126953125,-23.332763671875
0.1795,2.492431640625,18.147705078125,-20.810302734375
0.18,-2.272216796875,20.469970703125,-18.568115234375
0.1805,-6.756591796875,23.633056640625,-17.286865234375
