wavelength,x,y,z
0.0,1.5615234375,-5.8056640625,2.2421875
0.0005,0.6005859375,-6.1259765625,3.443359375
0.001,0.0400390625,-6.3662109375,4.32421875
0.0015,-1.0009765625,-6.0458984375,4.884765625
0.002,-2.1220703125,-5.125,5.3251953125
0.0025,-3.2431640625,-4.1640625,5.7255859375
0.003,-4.2041015625,-3.0830078125,5.8857421875
0.0035,-4.9248046875,-2.2421875,6.0458984375
0.004,-5.205078125,-1.5615234375,5.8857421875
0.0045,-5.1650390625,-0.6806640625,5.2451171875
0.005,-5.125,0.4404296875,4.484375
0.0055,-5.1650390625,1.6015625,3.5634765625
0.006,-5.0849609375,2.6826171875,2.5625
0.0065,-5.0048828125,3.6435546875,1.8017578125
0.007,-4.5244140625,4.1240234375,0.9609375
0.0075,-3.7236328125,4.484375,0.0
0.008,-2.8427734375,4.9248046875,-1.4013671875
0.0085,-1.8818359375,5.0849609375,-2.6025390625
0.009,-1.0009765625,5.4453125,-3.763671875
0.0095,-0.2802734375,5.60546875,-4.6044921875
0.01,0.80078125,5.0849609375,-5.125
0.0105,2.001953125,4.1640625,-5.5654296875
0.011,3.1630859375,3.1630859375,-5.92578125
0.0115,4.083984375,2.1220703125,-6.0859375
0.012,4.724609375,1.361328125,-6.24609375
0.0125,4.8447265625,0.6005859375,-5.845703125
0.013,4.8046875,-0.48046875,-5.125
0.0135,4.8046875,-1.5615234375,-4.32421875
0.014,4.8046875,-2.7626953125,-3.283203125
0.0145,4.6845703125,-3.84375,-2.40234375
0.015,4.564453125,-4.64453125,-1.6015625
0.0155,3.84375,-5.0849609375,-0.6806640625
0.016,2.962890625,-5.4052734375,0.560546875
0.0165,1.9619140625,-5.845703125,1.76171875
0.017,0.9609375,-6.0458984375,3.04296875
0.0175,0.2802734375,-6.3662109375,4.1240234375
0.018,-0.6806640625,-6.166015625,4.8046875
0.0185,-1.8017578125,-5.365234375,5.2451171875
0.019,-2.962890625,-4.4443359375,5.6455078125
0.0195,-4.083984375,-3.283203125,5.8857421875
0.02,-4.8447265625,-2.3623046875,6.005859375
0.0205,-5.2451171875,-1.6015625,5.9658203125
0.021,-5.2451171875,-0.80078125,5.4052734375
0.0215,-5.1650390625,0.2802734375,4.5244140625
0.022,-5.1650390625,1.521484375,3.68359375
0.0225,-5.0849609375,2.642578125,2.6826171875
0.023,-5.0048828125,3.6435546875,1.76171875
0.0235,-4.64453125,4.2041015625,1.0009765625
0.024,-3.84375,4.484375,0.0400390625
0.0245,-2.8427734375,4.96484375,-1.201171875
0.025,-1.8017578125,5.1650390625,-2.6025390625
0.0255,-1.0009765625,5.4052734375,-3.7236328125
0.026,-0.3203125,5.685546875,-4.64453125
0.0265,0.7607421875,5.2451171875,-5.1650390625
0.027,1.9619140625,4.32421875,-5.60546875
0.0275,3.123046875,3.283203125,-5.9658203125
0.028,4.1240234375,2.162109375,-6.1259765625
0.0285,4.8046875,1.3212890625,-6.24609375
0.029,5.0048828125,0.6005859375,-6.0458984375
0.0295,4.9248046875,-0.400390625,-5.28515625
0.03,4.8447265625,-1.4814453125,-4.4443359375
0.0305,4.8447265625,-2.7626953125,-3.36328125
0.031,4.724609375,-3.84375,-2.4423828125
0.0315,4.6044921875,-4.7646484375,-1.6015625
0.032,4.0439453125,-5.1650390625,-0.720703125
0.0325,2.9228515625,-5.525390625,0.560546875
0.033,2.0419921875,-5.845703125,1.841796875
0.0335,0.9609375,-6.1259765625,3.0830078125
0.034,0.16015625,-6.326171875,4.1240234375
0.0345,-0.640625,-6.326171875,4.9248046875
0.035,-1.7216796875,-5.6455078125,5.4052734375
0.0355,-2.962890625,-4.564453125,5.765625
0.036,-4.1640625,-3.4033203125,6.0458984375
0.0365,-4.96484375,-2.3623046875,6.0859375
0.037,-5.4853515625,-1.6015625,6.1259765625
0.0375,-5.4853515625,-0.80078125,5.6455078125
0.038,-5.3251953125,0.3203125,4.7646484375
0.0385,-5.28515625,1.521484375,3.8037109375
0.039,-5.1650390625,2.72265625,2.6826171875
0.0395,-5.044921875,3.763671875,1.76171875
0.04,-4.8046875,4.484375,0.9609375
0.0405,-4.1240234375,4.6044921875,-0.080078125
0.041,-2.9228515625,4.96484375,-1.3212890625
0.0415,-1.841796875,5.3251953125,-2.72265625
0.042,-0.8408203125,5.525390625,-3.8837890625
0.0425,0.0,5.765625,-4.884765625
0.043,0.8408203125,5.4853515625,-5.4853515625
0.0435,2.0419921875,4.484375,-5.845703125
0.044,3.283203125,3.36328125,-6.24609375
0.0445,4.404296875,2.162109375,-6.40625
0.045,5.044921875,1.201171875,-6.40625
0.0455,5.365234375,0.4404296875,-6.2861328125
0.046,5.2451171875,-0.6005859375,-5.525390625
0.0465,5.0849609375,-1.7216796875,-4.484375
0.047,5.044921875,-3.0830078125,-3.36328125
0.0475,4.8447265625,-4.244140625,-2.2421875
0.048,4.6845703125,-5.1650390625,-1.3212890625
0.0485,4.1640625,-5.765625,-0.640625
0.049,3.1630859375,-5.8857421875,0.6806640625
0.0495,1.921875,-6.1259765625,2.162109375
0.05,0.640625,-6.326171875,3.5634765625
0.0505,-0.3203125,-6.486328125,4.6044921875
0.051,-1.0009765625,-6.56640625,5.4453125
0.0515,-2.001953125,-5.845703125,5.8857421875
0.052,-3.36328125,-4.6044921875,6.24609375
0.0525,-4.64453125,-3.36328125,6.5263671875
0.053,-5.4853515625,-2.1220703125,6.486328125
0.0535,-6.0458984375,-1.2412109375,6.40625
0.054,-6.0458984375,-0.400390625,5.9658203125
0.0545,-5.765625,0.7607421875,4.96484375
0.055,-5.60546875,2.0419921875,3.68359375
0.0555,-5.4453125,3.4033203125,2.482421875
0.056,-5.1650390625,4.4443359375,1.3212890625
0.0565,-4.8447265625,5.2451171875,0.560546875
0.057,-4.0439453125,5.365234375,-0.5205078125
0.0575,-2.7626953125,5.4453125,-1.8017578125
0.058,-1.44140625,5.765625,-3.36328125
0.0585,-0.3203125,5.845703125,-4.64453125
0.059,0.6005859375,5.9658203125,-5.5654296875
0.0595,1.361328125,5.7255859375,-6.2060546875
0.06,2.5625,4.6044921875,-6.5263671875
0.0605,3.923828125,3.2431640625,-6.7666015625
0.061,5.044921875,1.9619140625,-6.9267578125
0.0615,5.685546875,0.7607421875,-6.7265625
0.062,5.9658203125,0.0,-6.56640625
0.0625,5.8056640625,-1.041015625,-5.765625
0.063,5.4453125,-2.2822265625,-4.5244140625
0.0635,5.28515625,-3.6435546875,-3.203125
0.064,5.044921875,-4.8447265625,-1.9619140625
0.0645,4.6044921875,-5.765625,-0.8408203125
0.065,4.244140625,-6.326171875,0.0
0.0655,3.1630859375,-6.40625,1.0009765625
0.066,1.7216796875,-6.4462890625,2.5224609375
0.0665,0.3603515625,-6.6064453125,4.0439453125
0.067,-0.7607421875,-6.6064453125,5.0849609375
0.0675,-1.4013671875,-6.7265625,5.9658203125
0.068,-2.322265625,-6.1259765625,6.40625
0.0685,-3.68359375,-4.8046875,6.646484375
0.069,-4.9248046875,-3.443359375,6.8466796875
0.0695,-5.845703125,-2.1220703125,6.8466796875
0.07,-6.40625,-1.041015625,6.646484375
0.0705,-6.4462890625,-0.2802734375,6.24609375
0.071,-6.166015625,0.80078125,5.28515625
0.0715,-5.8056640625,2.08203125,3.9638671875
0.072,-5.6455078125,3.4833984375,2.6025390625
0.0725,-5.4052734375,4.484375,1.4013671875
0.073,-5.0048828125,5.3251953125,0.48046875
0.0735,-4.2841796875,5.6455078125,-0.5205078125
0.074,-3.0830078125,5.7255859375,-1.6416015625
0.0745,-1.681640625,5.8857421875,-3.203125
0.075,-0.3603515625,5.9658203125,-4.6044921875
0.0755,0.6005859375,6.0458984375,-5.5654296875
0.076,1.28125,5.9658203125,-6.2861328125
0.0765,2.3623046875,5.0849609375,-6.6064453125
0.077,3.68359375,3.68359375,-6.8466796875
0.0775,4.9248046875,2.3623046875,-7.0869140625
0.078,5.685546875,1.0810546875,-6.88671875
0.0785,6.0859375,0.16015625,-6.7666015625
0.079,6.0458984375,-0.80078125,-6.166015625
0.0795,5.685546875,-1.8818359375,-5.0849609375
0.08,5.4052734375,-3.1630859375,-3.763671875
0.0805,5.0849609375,-4.64453125,-2.3623046875
0.081,4.8447265625,-5.5654296875,-1.28125
0.0815,4.5244140625,-6.2861328125,-0.4404296875
0.082,3.603515625,-6.40625,0.6005859375
0.0825,2.2421875,-6.4462890625,1.9619140625
0.083,0.880859375,-6.646484375,3.5234375
0.0835,-0.4404296875,-6.646484375,4.8046875
0.084,-1.1611328125,-6.7265625,5.685546875
0.0845,-1.9619140625,-6.486328125,6.326171875
0.085,-3.1630859375,-5.4052734375,6.56640625
0.0855,-4.4443359375,-4.00390625,6.7666015625
0.086,-5.5654296875,-2.6025390625,6.88671875
0.0865,-6.24609375,-1.44140625,6.6865234375
0.087,-6.486328125,-0.640625,6.486328125
0.0875,-6.2861328125,0.3603515625,5.7255859375
0.088,-5.92578125,1.5615234375,4.484375
0.0885,-5.765625,2.7626953125,3.123046875
0.089,-5.4453125,4.1240234375,1.8818359375
0.0895,-5.125,5.044921875,0.8408203125
0.09,-4.64453125,5.60546875,0.0400390625
0.0905,-3.603515625,5.7255859375,-1.12109375
0.091,-2.2822265625,5.8056640625,-2.5625
0.0915,-0.880859375,6.005859375,-4.1240234375
0.092,0.2802734375,6.005859375,-5.1650390625
0.0925,0.9609375,6.0859375,-6.0859375
0.093,1.841796875,5.5654296875,-6.5263671875
0.0935,3.1630859375,4.2041015625,-6.7666015625
0.094,4.484375,2.9228515625,-7.0068359375
0.0945,5.4453125,1.5615234375,-7.0068359375
0.095,6.005859375,0.5205078125,-6.8466796875
0.0955,6.0859375,-0.4404296875,-6.486328125
0.096,5.845703125,-1.44140625,-5.525390625
0.0965,5.5654296875,-2.72265625,-4.1240234375
0.097,5.365234375,-4.1640625,-2.8828125
0.0975,5.044921875,-5.28515625,-1.6416015625
0.098,4.724609375,-6.0859375,-0.6806640625
0.0985,4.00390625,-6.40625,0.2802734375
0.099,2.7626953125,-6.4462890625,1.4814453125
0.0995,1.3212890625,-6.6064453125,3.04296875
0.1,0.0,-6.6865234375,4.484375
0.1005,-1.0009765625,-6.7265625,5.4453125
0.101,-1.681640625,-6.6865234375,6.2060546875
0.1015,-2.72265625,-5.765625,6.5263671875
0.102,-4.1240234375,-4.3642578125,6.7265625
0.1025,-5.28515625,-3.0830078125,6.88671875
0.103,-6.0458984375,-1.8017578125,6.7265625
0.1035,-6.4462890625,-0.8408203125,6.56640625
0.104,-6.3662109375,0.080078125,6.005859375
0.1045,-6.005859375,1.12109375,4.8447265625
0.105,-5.765625,2.40234375,3.603515625
0.1055,-5.525390625,3.7236328125,2.2421875
0.106,-5.1650390625,4.724609375,1.12109375
0.1065,-4.8447265625,5.4052734375,0.3203125
0.107,-3.9638671875,5.60546875,-0.6806640625
0.1075,-2.6826171875,5.685546875,-1.9619140625
0.108,-1.361328125,5.8857421875,-3.4833984375
0.1085,-0.16015625,5.8857421875,-4.6845703125
0.109,0.6806640625,5.9658203125,-5.6455078125
0.1095,1.4013671875,5.7255859375,-6.2060546875
0.11,2.5224609375,4.724609375,-6.486328125
0.1105,3.8037109375,3.443359375,-6.7265625
0.111,4.9248046875,2.1220703125,-6.8466796875
0.1115,5.5654296875,0.9609375,-6.7265625
0.112,5.8857421875,0.2001953125,-6.56640625
0.1125,5.7255859375,-0.7607421875,-5.8857421875
0.113,5.4052734375,-1.921875,-4.7646484375
0.1135,5.2451171875,-3.203125,-3.5634765625
0.114,5.0048828125,-4.4443359375,-2.322265625
0.1145,4.724609375,-5.365234375,-1.28125
0.115,4.404296875,-5.9658203125,-0.5205078125
0.1155,3.4033203125,-6.1259765625,0.6005859375
0.116,2.162109375,-6.2861328125,1.9619140625
0.1165,0.8408203125,-6.486328125,3.4833984375
0.117,-0.3203125,-6.5263671875,4.6044921875
0.1175,-1.0009765625,-6.6865234375,5.4853515625
0.118,-1.8017578125,-6.2861328125,6.005859375
0.1185,-3.0830078125,-5.125,6.2861328125
0.119,-4.32421875,-3.8837890625,6.5263671875
0.1195,-5.3251953125,-2.6025390625,6.6064453125
0.12,-5.92578125,-1.5615234375,6.5263671875
0.1205,-6.1259765625,-0.80078125,6.24609375
0.121,-5.92578125,0.16015625,5.4052734375
0.1215,-5.6455078125,1.361328125,4.2841796875
0.122,-5.525390625,2.72265625,3.0830078125
0.1225,-5.28515625,3.84375,1.921875
0.123,-5.0849609375,4.724609375,1.0009765625
0.1235,-4.484375,5.125,0.16015625
0.124,-3.4033203125,5.28515625,-1.0009765625
0.1245,-2.2021484375,5.5654296875,-2.40234375
0.125,-0.9609375,5.685546875,-3.8037109375
0.1255,0.0400390625,5.765625,-4.8046875
0.126,0.640625,5.8857421875,-5.6455078125
0.1265,1.6416015625,5.1650390625,-6.005859375
0.127,2.8828125,3.9638671875,-6.2861328125
0.1275,4.0439453125,2.8427734375,-6.56640625
0.128,4.9248046875,1.6015625,-6.486328125
0.1285,5.4052734375,0.7607421875,-6.486328125
0.129,5.4853515625,-0.16015625,-6.1259765625
0.1295,5.2451171875,-1.12109375,-5.205078125
0.13,5.0849609375,-2.2421875,-4.1640625
0.1305,4.96484375,-3.5634765625,-2.962890625
0.131,4.724609375,-4.5244140625,-1.9619140625
0.1315,4.564453125,-5.3251953125,-1.1611328125
0.132,3.84375,-5.6455078125,-0.2802734375
0.1325,2.72265625,-5.765625,1.0009765625
0.133,1.6015625,-6.1259765625,2.40234375
0.1335,0.48046875,-6.166015625,3.603515625
0.134,-0.3603515625,-6.40625,4.6044921875
0.1345,-1.041015625,-6.3662109375,5.28515625
0.135,-2.08203125,-5.5654296875,5.685546875
0.1355,-3.283203125,-4.5244140625,6.005859375
0.136,-4.3642578125,-3.3232421875,6.2060546875
0.1365,-5.1650390625,-2.2822265625,6.2060546875
0.137,-5.6455078125,-1.5615234375,6.2060546875
0.1375,-5.5654296875,-0.80078125,5.685546875
0.138,-5.4052734375,0.3203125,4.8046875
0.1385,-5.3251953125,1.521484375,3.84375
0.139,-5.1650390625,2.72265625,2.72265625
0.1395,-5.044921875,3.68359375,1.841796875
0.14,-4.8046875,4.404296875,1.041015625
0.1405,-4.0439453125,4.6845703125,0.16015625
0.141,-3.0830078125,4.96484375,-1.1611328125
0.1415,-1.9619140625,5.28515625,-2.482421875
0.142,-1.0009765625,5.4853515625,-3.603515625
0.1425,-0.3203125,5.765625,-4.64453125
0.143,0.6005859375,5.4853515625,-5.205078125
0.1435,1.7216796875,4.6044921875,-5.6455078125
0.144,2.8828125,3.6435546875,-6.0458984375
0.1445,3.9638671875,2.5224609375,-6.2060546875
0.145,4.6845703125,1.5615234375,-6.2861328125
0.1455,5.044921875,0.80078125,-6.2060546875
0.146,4.96484375,0.0400390625,-5.60546875
0.1465,4.9248046875,-1.12109375,-4.7646484375
0.147,4.884765625,-2.322265625,-3.8037109375
0.1475,4.7646484375,-3.4833984375,-2.7626953125
0.148,4.64453125,-4.4443359375,-1.9619140625
0.1485,4.2841796875,-5.0048828125,-1.1611328125
0.149,3.443359375,-5.28515625,0.0
0.1495,2.482421875,-5.6455078125,1.2412109375
0.15,1.361328125,-5.92578125,2.5224609375
0.1505,0.560546875,-6.166015625,3.6435546875
0.151,-0.2802734375,-6.40625,4.5244140625
0.1515,-1.1611328125,-5.92578125,5.044921875
0.152,-2.322265625,-5.0048828125,5.4453125
0.1525,-3.5234375,-4.00390625,5.8056640625
0.153,-4.404296875,-2.9228515625,5.8857421875
0.1535,-5.0849609375,-2.1220703125,6.0458984375
0.154,-5.28515625,-1.361328125,5.8056640625
0.1545,-5.1650390625,-0.5205078125,5.0849609375
0.155,-5.125,0.640625,4.32421875
0.1555,-5.125,1.841796875,3.3232421875
0.156,-5.044921875,2.8828125,2.40234375
0.1565,-4.96484375,3.8037109375,1.6015625
0.157,-4.404296875,4.2041015625,0.8408203125
0.1575,-3.5634765625,4.5244140625,-0.3603515625
0.158,-2.6025390625,5.0048828125,-1.6015625
0.1585,-1.6015625,5.2451171875,-2.8427734375
0.159,-0.9208984375,5.5654296875,-3.8837890625
0.1595,-0.16015625,5.60546875,-4.6845703125
0.16,0.9609375,4.96484375,-5.1650390625
0.1605,2.162109375,4.083984375,-5.6455078125
0.161,3.3232421875,3.04296875,-5.9658203125
0.1615,4.1240234375,1.9619140625,-6.0859375
0.162,4.6845703125,1.3212890625,-6.2060546875
0.1625,4.8046875,0.560546875,-5.765625
0.163,4.7646484375,-0.5205078125,-5.0849609375
0.1635,4.8046875,-1.6015625,-4.244140625
0.164,4.7646484375,-2.8427734375,-3.2431640625
0.1645,4.6845703125,-3.84375,-2.40234375
0.165,4.5244140625,-4.64453125,-1.6015625
0.1655,3.84375,-5.0048828125,-0.6806640625
0.166,2.9228515625,-5.4052734375,0.6005859375
0.1665,1.921875,-5.765625,1.921875
0.167,0.9609375,-6.0458984375,3.0830078125
0.1675,0.2802734375,-6.3662109375,4.1240234375
0.168,-0.640625,-6.1259765625,4.7646484375
0.1685,-1.8017578125,-5.3251953125,5.2451171875
0.169,-2.962890625,-4.4443359375,5.6455078125
0.1695,-4.0439453125,-3.36328125,5.845703125
0.17,-4.8046875,-2.40234375,6.005859375
0.1705,-5.205078125,-1.681640625,5.92578125
0.171,-5.1650390625,-0.8408203125,5.365234375
0.1715,-5.125,0.2802734375,4.564453125
0.172,-5.1650390625,1.521484375,3.68359375
0.1725,-5.0849609375,2.6025390625,2.642578125
0.173,-5.0048828125,3.5634765625,1.841796875
0.1735,-4.64453125,4.1240234375,1.0810546875
0.174,-3.8037109375,4.484375,0.0400390625
0.1745,-2.8828125,4.9248046875,-1.3212890625
0.175,-1.8017578125,5.1650390625,-2.6025390625
0.1755,-1.0009765625,5.4853515625,-3.7236328125
0.176,-0.3203125,5.7255859375,-4.64453125
0.1765,0.7607421875,5.1650390625,-5.1650390625
0.177,2.001953125,4.2041015625,-5.6455078125
0.1775,3.1630859375,3.1630859375,-6.005859375
0.178,4.1240234375,2.08203125,-6.1259765625
0.1785,4.8046875,1.28125,-6.2861328125
0.179,4.96484375,0.560546875,-5.9658203125
0.1795,4.8447265625,-0.5205078125,-5.205078125
0.18,4.8447265625,-1.6015625,-4.3642578125
0.1805,4.8046875,-2.8828125,-3.283203125
0.181,4.6845703125,-3.923828125,-2.322265625
0.1815,4.6044921875,-4.8447265625,-1.521484375
0.182,3.9638671875,-5.205078125,-0.640625
0.1825,2.962890625,-5.4453125,0.6005859375
0.183,1.921875,-5.8857421875,2.001953125
0.1835,0.8408203125,-6.0458984375,3.203125
0.184,0.1201171875,-6.3662109375,4.2841796875
0.1845,-0.80078125,-6.2861328125,5.044921875
0.185,-1.8818359375,-5.4853515625,5.4052734375
0.1855,-3.123046875,-4.484375,5.8056640625
0.186,-4.2841796875,-3.2431640625,6.0859375
0.1865,-5.044921875,-2.2421875,6.1259765625
0.187,-5.4853515625,-1.4814453125,6.0859375
0.1875,-5.4853515625,-0.640625,5.5654296875
0.188,-5.28515625,0.48046875,4.6044921875
0.1885,-5.28515625,1.7216796875,3.603515625
0.189,-5.1650390625,2.9228515625,2.5224609375
0.1895,-5.0048828125,3.8837890625,1.6015625
0.19,-4.724609375,4.5244140625,0.80078125
0.1905,-3.84375,4.8046875,-0.2802734375
0.191,-2.7626953125,5.0849609375,-1.4814453125
0.1915,-1.6416015625,5.4052734375,-2.9228515625
0.192,-0.720703125,5.5654296875,-4.0439453125
0.1925,0.080078125,5.8056640625,-5.0048828125
0.193,0.9609375,5.3251953125,-5.525390625
0.1935,2.2421875,4.2841796875,-5.92578125
0.194,3.443359375,3.203125,-6.2861328125
0.1945,4.484375,2.001953125,-6.3662109375
0.195,5.0849609375,1.0810546875,-6.40625
0.1955,5.3251953125,0.3203125,-6.166015625
0.196,5.1650390625,-0.6806640625,-5.4052734375
0.1965,5.044921875,-1.8017578125,-4.3642578125
0.197,4.96484375,-3.1630859375,-3.203125
0.1975,4.7646484375,-4.244140625,-2.162109375
0.198,4.6044921875,-5.125,-1.3212890625
0.1985,4.083984375,-5.525390625,-0.5205078125
0.199,3.0029296875,-5.765625,0.7607421875
0.1995,1.841796875,-6.0458984375,2.2021484375
0.2,0.640625,-6.24609375,3.5234375
0.2005,-0.2802734375,-6.4462890625,4.5244140625
0.201,-1.0009765625,-6.486328125,5.3251953125
0.2015,-2.001953125,-5.765625,5.765625
0.202,-3.3232421875,-4.5244140625,6.1259765625
0.2025,-4.5244140625,-3.36328125,6.40625
0.203,-5.365234375,-2.2021484375,6.3662109375
0.2035,-5.8857421875,-1.3212890625,6.3662109375
0.204,-5.8857421875,-0.5205078125,5.8857421875
0.2045,-5.6455078125,0.640625,4.8447265625
0.205,-5.525390625,1.921875,3.7236328125
0.2055,-5.4052734375,3.2431640625,2.5224609375
0.206,-5.1650390625,4.2841796875,1.44140625
0.2065,-4.884765625,5.0048828125,0.640625
0.207,-4.00390625,5.2451171875,-0.400390625
0.2075,-2.7626953125,5.4052734375,-1.7216796875
0.208,-1.521484375,5.7255859375,-3.2431640625
0.2085,-0.4404296875,5.8056640625,-4.484375
0.209,0.4404296875,5.92578125,-5.4453125
0.2095,1.2412109375,5.6455078125,-6.0859375
0.21,2.5224609375,4.5244140625,-6.40625
0.2105,3.84375,3.2431640625,-6.6865234375
0.211,4.96484375,1.921875,-6.806640625
0.2115,5.60546875,0.80078125,-6.6865234375
0.212,5.8857421875,0.0400390625,-6.486328125
0.2125,5.685546875,-1.0009765625,-5.7255859375
0.213,5.4052734375,-2.2822265625,-4.4443359375
0.2135,5.2451171875,-3.6435546875,-3.1630859375
0.214,5.0048828125,-4.8447265625,-1.921875
0.2145,4.724609375,-5.7255859375,-0.9609375
0.215,4.1640625,-6.2060546875,0.0
0.2155,3.04296875,-6.2861328125,1.12109375
0.216,1.6015625,-6.4462890625,2.6826171875
0.2165,0.2802734375,-6.6064453125,4.1240234375
0.217,-0.80078125,-6.646484375,5.0849609375
0.2175,-1.44140625,-6.7265625,5.9658203125
0.218,-2.4423828125,-5.92578125,6.3662109375
0.2185,-3.8037109375,-4.564453125,6.6064453125
0.219,-5.0048828125,-3.2431640625,6.8466796875
0.2195,-5.92578125,-1.9619140625,6.7265625
0.22,-6.40625,-0.9609375,6.5263671875
0.2205,-6.40625,0.0,6.1259765625
0.221,-6.0859375,0.9609375,5.0849609375
0.2215,-5.765625,2.2421875,3.7236328125
0.222,-5.5654296875,3.6435546875,2.40234375
0.2225,-5.205078125,4.64453125,1.2412109375
0.223,-4.9248046875,5.4052734375,0.3603515625
0.2235,-4.1240234375,5.6455078125,-0.640625
0.224,-2.8427734375,5.7255859375,-1.841796875
0.2245,-1.44140625,5.8857421875,-3.36328125
0.225,-0.2001953125,5.8857421875,-4.724609375
0.2255,0.6806640625,5.9658203125,-5.6455078125
0.226,1.361328125,5.8857421875,-6.3662109375
0.2265,2.482421875,4.9248046875,-6.646484375
0.227,3.84375,3.5234375,-6.8466796875
0.2275,4.96484375,2.2021484375,-7.046875
