wavelength,x,y,z
0.0,1.521484375,-3.7236328125,2.162109375
0.0005,1.9619140625,-3.5634765625,1.5615234375
0.001,2.5625,-3.6435546875,1.12109375
0.0015,2.8828125,-3.203125,0.2802734375
0.002,3.2431640625,-2.8427734375,-0.3603515625
0.0025,3.4833984375,-2.2021484375,-1.201171875
0.003,3.443359375,-1.681640625,-1.6416015625
0.0035,3.5234375,-1.0810546875,-2.322265625
0.004,3.4033203125,-0.48046875,-2.8427734375
0.0045,3.1630859375,0.16015625,-3.283203125
0.005,2.6826171875,0.9609375,-3.5634765625
0.0055,2.08203125,1.5615234375,-3.603515625
0.006,1.28125,2.08203125,-3.36328125
0.0065,0.7607421875,2.7626953125,-3.5634765625
0.007,0.0,3.0830078125,-3.1630859375
0.0075,-0.6005859375,3.443359375,-2.8828125
0.008,-1.361328125,3.5634765625,-2.2822265625
0.0085,-1.8017578125,3.4833984375,-1.841796875
0.009,-2.2822265625,3.443359375,-1.28125
0.0095,-2.7626953125,3.2431640625,-0.720703125
0.01,-3.04296875,2.8427734375,0.0
0.0105,-3.283203125,2.322265625,0.7607421875
0.011,-3.443359375,1.76171875,1.44140625
0.0115,-3.203125,1.12109375,1.921875
0.012,-3.3232421875,0.640625,2.5224609375
0.0125,-3.0029296875,-0.0400390625,2.8828125
0.013,-2.6826171875,-0.6806640625,3.2431640625
0.0135,-2.08203125,-1.44140625,3.4033203125
0.014,-1.44140625,-1.9619140625,3.3232421875
0.0145,-0.7607421875,-2.5224609375,3.1630859375
0.015,-0.2001953125,-3.0830078125,3.203125
0.0155,0.48046875,-3.36328125,2.7626953125
0.016,1.12109375,-3.6435546875,2.482421875
0.0165,1.76171875,-3.8037109375,1.9619140625
0.017,2.1220703125,-3.5634765625,1.4013671875
0.0175,2.642578125,-3.68359375,0.9208984375
0.018,3.0029296875,-3.1630859375,0.2001953125
0.0185,3.3232421875,-2.802734375,-0.400390625
0.019,3.4833984375,-2.162109375,-1.2412109375
0.0195,3.5234375,-1.6416015625,-1.8017578125
0.02,3.36328125,-1.0009765625,-2.2822265625
0.0205,3.5234375,-0.5205078125,-2.8828125
0.021,3.123046875,0.2001953125,-3.2431640625
0.0215,2.802734375,0.880859375,-3.5634765625
0.022,2.162109375,1.6015625,-3.7236328125
0.0225,1.4013671875,2.08203125,-3.5234375
0.023,0.7607421875,2.6826171875,-3.4833984375
0.0235,0.080078125,3.1630859375,-3.2431640625
0.024,-0.560546875,3.4033203125,-2.8828125
0.0245,-1.28125,3.603515625,-2.4423828125
0.025,-1.841796875,3.6435546875,-1.9619140625
0.0255,-2.2421875,3.36328125,-1.361328125
0.026,-2.802734375,3.5234375,-0.8408203125
0.0265,-3.04296875,2.8828125,-0.0400390625
0.027,-3.36328125,2.5625,0.6005859375
0.0275,-3.4833984375,1.841796875,1.4013671875
0.028,-3.4033203125,1.3212890625,1.8818359375
0.0285,-3.2431640625,0.6806640625,2.40234375
0.029,-3.2431640625,0.1201171875,2.9228515625
0.0295,-2.802734375,-0.6005859375,3.203125
0.03,-2.322265625,-1.28125,3.4833984375
0.0305,-1.6416015625,-1.9619140625,3.5234375
0.031,-0.880859375,-2.482421875,3.2431640625
0.0315,-0.3203125,-3.123046875,3.3232421875
0.032,0.4404296875,-3.4033203125,2.8828125
0.0325,1.0810546875,-3.7236328125,2.6025390625
0.033,1.76171875,-3.8837890625,2.0419921875
0.0335,2.2021484375,-3.84375,1.521484375
0.034,2.6025390625,-3.5234375,0.9609375
0.0345,3.1630859375,-3.4833984375,0.3603515625
0.035,3.3232421875,-2.7626953125,-0.48046875
0.0355,3.603515625,-2.3623046875,-1.1611328125
0.036,3.68359375,-1.6416015625,-1.921875
0.0365,3.4833984375,-1.041015625,-2.322265625
0.037,3.4833984375,-0.48046875,-2.8828125
0.0375,3.203125,0.16015625,-3.3232421875
0.038,2.8427734375,0.880859375,-3.603515625
0.0385,2.2021484375,1.5615234375,-3.7236328125
0.039,1.521484375,2.2021484375,-3.7236328125
0.0395,0.720703125,2.642578125,-3.36328125
0.04,0.2001953125,3.2431640625,-3.4833984375
0.0405,-0.640625,3.4033203125,-2.8828125
0.041,-1.2412109375,3.68359375,-2.5625
0.0415,-1.9619140625,3.68359375,-1.9619140625
0.042,-2.322265625,3.5234375,-1.361328125
0.0425,-2.7626953125,3.443359375,-0.80078125
0.043,-3.1630859375,3.123046875,-0.1201171875
0.0435,-3.36328125,2.5224609375,0.640625
0.044,-3.5634765625,2.0419921875,1.3212890625
0.0445,-3.5634765625,1.361328125,1.9619140625
0.045,-3.2431640625,0.6806640625,2.40234375
0.0455,-3.36328125,0.16015625,3.04296875
0.046,-2.8427734375,-0.6005859375,3.2431640625
0.0465,-2.4423828125,-1.28125,3.5634765625
0.047,-1.7216796875,-1.9619140625,3.5634765625
0.0475,-1.041015625,-2.5224609375,3.443359375
0.048,-0.3203125,-3.0029296875,3.203125
0.0485,0.2802734375,-3.5634765625,3.1630859375
0.049,1.12109375,-3.7236328125,2.5224609375
0.0495,1.6416015625,-3.9638671875,2.2421875
0.05,2.2822265625,-3.8837890625,1.6015625
0.0505,2.6826171875,-3.603515625,1.0009765625
0.051,3.1630859375,-3.5634765625,0.4404296875
0.0515,3.4833984375,-2.962890625,-0.3603515625
0.052,3.68359375,-2.4423828125,-1.12109375
0.0525,3.763671875,-1.8017578125,-1.8818359375
0.053,3.7236328125,-1.201171875,-2.4423828125
0.0535,3.443359375,-0.48046875,-2.8828125
0.054,3.5234375,0.0400390625,-3.4833984375
0.0545,2.8427734375,0.9208984375,-3.7236328125
0.055,2.40234375,1.5615234375,-3.923828125
0.0555,1.6015625,2.2822265625,-3.8837890625
0.056,0.80078125,2.802734375,-3.603515625
0.0565,0.1201171875,3.283203125,-3.443359375
0.057,-0.6005859375,3.68359375,-3.123046875
0.0575,-1.44140625,3.8037109375,-2.5224609375
0.058,-1.9619140625,3.8837890625,-2.001953125
0.0585,-2.6025390625,3.84375,-1.361328125
0.059,-2.9228515625,3.443359375,-0.6806640625
0.0595,-3.4833984375,3.443359375,-0.1201171875
0.06,-3.603515625,2.5224609375,0.880859375
0.0605,-3.84375,2.0419921875,1.5615234375
0.061,-3.7236328125,1.28125,2.2421875
0.0615,-3.5634765625,0.6005859375,2.802734375
0.062,-3.283203125,-0.080078125,3.1630859375
0.0625,-3.123046875,-0.720703125,3.68359375
0.063,-2.3623046875,-1.681640625,3.8837890625
0.0635,-1.76171875,-2.2822265625,3.8837890625
0.064,-0.9208984375,-3.0029296875,3.8037109375
0.0645,-0.0400390625,-3.443359375,3.4033203125
0.065,0.560546875,-3.9638671875,3.283203125
0.0655,1.44140625,-4.2041015625,2.6025390625
0.066,2.2421875,-4.2841796875,2.0419921875
0.0665,2.72265625,-4.1240234375,1.4013671875
0.067,3.283203125,-4.00390625,0.7607421875
0.0675,3.5234375,-3.4833984375,0.0
0.068,4.0439453125,-3.283203125,-0.640625
0.0685,4.083984375,-2.2421875,-1.7216796875
0.069,4.1640625,-1.681640625,-2.3623046875
0.0695,3.9638671875,-0.80078125,-3.04296875
0.07,3.68359375,-0.1201171875,-3.443359375
0.0705,3.443359375,0.5205078125,-3.84375
0.071,2.962890625,1.28125,-4.1640625
0.0715,2.2021484375,2.2021484375,-4.3642578125
0.072,1.4013671875,2.6826171875,-4.1240234375
0.0725,0.6005859375,3.3232421875,-3.9638671875
0.073,-0.240234375,3.6435546875,-3.4033203125
0.0735,-0.8408203125,4.0439453125,-3.36328125
0.074,-1.8818359375,4.1240234375,-2.3623046875
0.0745,-2.4423828125,4.2041015625,-1.8818359375
0.075,-2.9228515625,3.8837890625,-1.12109375
0.0755,-3.36328125,3.763671875,-0.5205078125
0.076,-3.6435546875,3.2431640625,0.16015625
0.0765,-4.00390625,2.8828125,0.880859375
0.077,-4.00390625,1.921875,1.921875
0.0775,-3.9638671875,1.3212890625,2.40234375
0.078,-3.8037109375,0.48046875,3.04296875
0.0785,-3.4033203125,-0.16015625,3.4033203125
0.079,-3.203125,-0.80078125,3.84375
0.0795,-2.5224609375,-1.6416015625,4.00390625
0.08,-1.8818359375,-2.4423828125,4.1640625
0.0805,-1.0009765625,-2.962890625,3.8037109375
0.081,-0.240234375,-3.5634765625,3.7236328125
0.0815,0.560546875,-3.8837890625,3.1630859375
0.082,1.1611328125,-4.2841796875,3.0830078125
0.0825,2.2421875,-4.3642578125,2.1220703125
0.083,2.6826171875,-4.3642578125,1.681640625
0.0835,3.203125,-4.0439453125,0.880859375
0.084,3.6435546875,-3.8037109375,0.240234375
0.0845,3.9638671875,-3.36328125,-0.48046875
0.085,4.1240234375,-2.72265625,-1.3212890625
0.0855,4.2841796875,-1.8818359375,-2.2822265625
0.086,4.083984375,-1.1611328125,-2.7626953125
0.0865,3.9638671875,-0.400390625,-3.4033203125
0.087,3.5234375,0.2802734375,-3.7236328125
0.0875,3.36328125,0.880859375,-4.1640625
0.088,2.5224609375,1.921875,-4.32421875
0.0885,1.921875,2.5224609375,-4.404296875
0.089,0.880859375,3.04296875,-3.9638671875
0.0895,0.1201171875,3.6435546875,-3.84375
0.09,-0.640625,3.923828125,-3.36328125
0.0905,-1.3212890625,4.2041015625,-2.9228515625
0.091,-2.322265625,4.2841796875,-2.08203125
0.0915,-2.72265625,4.083984375,-1.4814453125
0.092,-3.283203125,3.84375,-0.7607421875
0.0925,-3.5634765625,3.4833984375,-0.080078125
0.093,-3.923828125,3.123046875,0.6005859375
0.0935,-4.0439453125,2.2822265625,1.521484375
0.094,-4.1640625,1.5615234375,2.322265625
0.0945,-3.763671875,0.7607421875,2.7626953125
0.095,-3.68359375,0.1201171875,3.36328125
0.0955,-3.203125,-0.6005859375,3.68359375
0.096,-2.962890625,-1.2412109375,4.00390625
0.0965,-2.0419921875,-2.2021484375,4.1240234375
0.097,-1.4013671875,-2.7626953125,4.00390625
0.0975,-0.560546875,-3.3232421875,3.763671875
0.098,0.240234375,-3.8037109375,3.4833984375
0.0985,0.9609375,-4.1240234375,3.123046875
0.099,1.7216796875,-4.2841796875,2.5625
0.0995,2.6025390625,-4.4443359375,1.841796875
0.1,2.9228515625,-4.0439453125,1.201171875
0.1005,3.5234375,-4.00390625,0.560546875
0.101,3.763671875,-3.4833984375,-0.2001953125
0.1015,4.1240234375,-3.1630859375,-0.8408203125
0.102,4.1240234375,-2.162109375,-1.8818359375
0.1025,4.244140625,-1.5615234375,-2.5625
0.103,3.84375,-0.640625,-3.0830078125
0.1035,3.8037109375,-0.080078125,-3.603515625
0.104,3.36328125,0.640625,-3.923828125
0.1045,2.9228515625,1.28125,-4.2041015625
0.105,2.162109375,2.2421875,-4.404296875
0.1055,1.28125,2.5625,-4.1640625
0.106,0.5205078125,3.36328125,-3.8837890625
0.1065,-0.2802734375,3.763671875,-3.5234375
0.107,-0.9609375,4.083984375,-3.203125
0.1075,-1.8017578125,4.1240234375,-2.4423828125
0.108,-2.5625,4.2841796875,-1.841796875
0.1085,-2.8828125,3.8037109375,-1.0810546875
0.109,-3.4833984375,3.84375,-0.5205078125
0.1095,-3.68359375,3.203125,0.2802734375
0.11,-4.00390625,2.8427734375,0.9208984375
0.1105,-4.0439453125,1.841796875,1.9619140625
0.111,-3.9638671875,1.2412109375,2.5224609375
0.1115,-3.603515625,0.3603515625,3.04296875
0.112,-3.5234375,-0.2001953125,3.5234375
0.1125,-3.1630859375,-1.0009765625,3.84375
0.113,-2.5224609375,-1.7216796875,4.0439453125
0.1135,-1.76171875,-2.72265625,4.083984375
0.114,-0.8408203125,-3.0029296875,3.763671875
0.1145,-0.16015625,-3.68359375,3.7236328125
0.115,0.6806640625,-4.00390625,3.203125
0.1155,1.3212890625,-4.244140625,2.8828125
0.116,2.2421875,-4.3642578125,2.08203125
0.1165,2.8427734375,-4.32421875,1.521484375
0.117,3.203125,-3.84375,0.720703125
0.1175,3.763671875,-3.8037109375,0.16015625
0.118,3.923828125,-3.1630859375,-0.6806640625
0.1185,4.1240234375,-2.6025390625,-1.4013671875
0.119,4.2041015625,-1.681640625,-2.4423828125
0.1195,3.9638671875,-1.0009765625,-2.8828125
0.12,3.8037109375,-0.2802734375,-3.4033203125
0.1205,3.443359375,0.2802734375,-3.8837890625
0.121,3.123046875,1.0810546875,-4.1640625
0.1215,2.40234375,1.921875,-4.244140625
0.122,1.6416015625,2.6826171875,-4.32421875
0.1225,0.6806640625,3.04296875,-3.8037109375
0.123,0.0400390625,3.68359375,-3.8037109375
0.1235,-0.7607421875,3.84375,-3.203125
0.124,-1.361328125,4.083984375,-2.8427734375
0.1245,-2.2822265625,4.1240234375,-2.001953125
0.125,-2.72265625,3.9638671875,-1.361328125
0.1255,-3.1630859375,3.68359375,-0.6806640625
0.126,-3.5634765625,3.4833984375,-0.080078125
0.1265,-3.7236328125,2.8427734375,0.640625
0.127,-3.8837890625,2.2421875,1.4013671875
0.1275,-3.9638671875,1.4814453125,2.2822265625
0.128,-3.5634765625,0.720703125,2.6025390625
0.1285,-3.68359375,0.0,3.1630859375
0.129,-3.1630859375,-0.6005859375,3.5234375
0.1295,-2.802734375,-1.2412109375,3.84375
0.13,-2.0419921875,-2.001953125,3.8837890625
0.1305,-1.361328125,-2.5625,3.84375
0.131,-0.5205078125,-3.0830078125,3.443359375
0.1315,0.0400390625,-3.5634765625,3.4833984375
0.132,0.880859375,-3.84375,2.9228515625
0.1325,1.4814453125,-4.0439453125,2.5625
0.133,2.2421875,-4.1640625,1.921875
0.1335,2.6025390625,-3.84375,1.28125
0.134,3.1630859375,-3.84375,0.720703125
0.1345,3.443359375,-3.36328125,0.0
0.135,3.763671875,-2.962890625,-0.6806640625
0.1355,3.84375,-2.2421875,-1.4814453125
0.136,3.923828125,-1.6015625,-2.2021484375
0.1365,3.4833984375,-1.0009765625,-2.642578125
0.137,3.763671875,-0.400390625,-3.2431640625
0.1375,3.3232421875,0.3203125,-3.5634765625
0.138,2.9228515625,1.0009765625,-3.8837890625
0.1385,2.2421875,1.8818359375,-4.00390625
0.139,1.44140625,2.3623046875,-3.8037109375
0.1395,0.6806640625,2.9228515625,-3.6435546875
0.14,0.0400390625,3.4033203125,-3.4833984375
0.1405,-0.640625,3.6435546875,-3.0830078125
0.141,-1.3212890625,3.84375,-2.5625
0.1415,-2.001953125,3.8837890625,-2.0419921875
0.142,-2.322265625,3.5634765625,-1.361328125
0.1425,-2.9228515625,3.68359375,-0.8408203125
0.143,-3.203125,3.0830078125,-0.080078125
0.1435,-3.5234375,2.7626953125,0.560546875
0.144,-3.603515625,1.9619140625,1.4013671875
0.1445,-3.603515625,1.4013671875,1.8818359375
0.145,-3.3232421875,0.720703125,2.40234375
0.1455,-3.4033203125,0.240234375,2.962890625
0.146,-2.962890625,-0.5205078125,3.2431640625
0.1465,-2.5625,-1.1611328125,3.5234375
0.147,-1.8818359375,-1.921875,3.6435546875
0.1475,-1.1611328125,-2.3623046875,3.4033203125
0.148,-0.5205078125,-3.0029296875,3.443359375
0.1485,0.16015625,-3.36328125,3.123046875
0.149,0.7607421875,-3.7236328125,2.8427734375
0.1495,1.521484375,-3.84375,2.322265625
0.15,2.0419921875,-3.8837890625,1.8818359375
0.1505,2.40234375,-3.603515625,1.2412109375
0.151,3.0029296875,-3.68359375,0.720703125
0.1515,3.2431640625,-3.0830078125,-0.080078125
0.152,3.5634765625,-2.72265625,-0.720703125
0.1525,3.68359375,-2.001953125,-1.6015625
0.153,3.5634765625,-1.4814453125,-2.0419921875
0.1535,3.5634765625,-0.8408203125,-2.6826171875
0.154,3.4833984375,-0.2001953125,-3.1630859375
0.1545,3.1630859375,0.48046875,-3.5634765625
0.155,2.6025390625,1.201171875,-3.763671875
0.1555,1.9619140625,1.8818359375,-3.84375
0.156,1.1611328125,2.3623046875,-3.5234375
0.1565,0.6005859375,3.04296875,-3.6435546875
0.157,-0.16015625,3.3232421875,-3.1630859375
0.1575,-0.80078125,3.6435546875,-2.8828125
0.158,-1.5615234375,3.7236328125,-2.2822265625
0.1585,-1.9619140625,3.6435546875,-1.8017578125
0.159,-2.482421875,3.5234375,-1.1611328125
0.1595,-2.962890625,3.4033203125,-0.560546875
0.16,-3.203125,2.802734375,0.2001953125
0.1605,-3.4833984375,2.3623046875,0.9208984375
0.161,-3.5634765625,1.681640625,1.6416015625
0.1615,-3.3232421875,1.0009765625,2.0419921875
0.162,-3.443359375,0.5205078125,2.72265625
0.1625,-3.0830078125,-0.16015625,3.0830078125
0.163,-2.72265625,-0.8408203125,3.443359375
0.1635,-2.08203125,-1.6015625,3.5234375
0.164,-1.44140625,-2.162109375,3.4833984375
0.1645,-0.640625,-2.6826171875,3.2431640625
0.165,-0.1201171875,-3.283203125,3.3232421875
0.1655,0.6005859375,-3.4833984375,2.802734375
0.166,1.2412109375,-3.8037109375,2.5224609375
0.1665,1.921875,-3.8837890625,1.921875
0.167,2.2421875,-3.603515625,1.361328125
0.1675,2.8427734375,-3.603515625,0.8408203125
0.168,3.1630859375,-3.203125,0.1201171875
0.1685,3.4033203125,-2.7626953125,-0.6005859375
0.169,3.5634765625,-2.2021484375,-1.3212890625
0.1695,3.6435546875,-1.6015625,-1.9619140625
0.17,3.36328125,-0.9208984375,-2.40234375
0.1705,3.5634765625,-0.4404296875,-3.04296875
0.171,3.123046875,0.2802734375,-3.283203125
0.1715,2.7626953125,0.9609375,-3.6435546875
0.172,2.0419921875,1.681640625,-3.7236328125
0.1725,1.361328125,2.162109375,-3.5634765625
0.173,0.6806640625,2.72265625,-3.4833984375
0.1735,0.080078125,3.1630859375,-3.283203125
0.174,-0.6005859375,3.4033203125,-2.8828125
0.1745,-1.2412109375,3.6435546875,-2.482421875
0.175,-1.8017578125,3.68359375,-1.9619140625
0.1755,-2.162109375,3.443359375,-1.361328125
0.176,-2.802734375,3.5234375,-0.9208984375
0.1765,-3.0029296875,2.9228515625,-0.080078125
0.177,-3.3232421875,2.5625,0.560546875
0.1775,-3.4033203125,1.921875,1.28125
0.178,-3.4033203125,1.4013671875,1.76171875
0.1785,-3.283203125,0.7607421875,2.322265625
0.179,-3.283203125,0.240234375,2.8828125
0.1795,-2.8427734375,-0.5205078125,3.1630859375
0.18,-2.40234375,-1.1611328125,3.443359375
0.1805,-1.76171875,-1.8818359375,3.4833984375
0.181,-1.0009765625,-2.3623046875,3.2431640625
0.1815,-0.48046875,-3.04296875,3.36328125
0.182,0.240234375,-3.3232421875,3.0029296875
0.1825,0.9208984375,-3.6435546875,2.72265625
0.183,1.5615234375,-3.763671875,2.2021484375
0.1835,2.0419921875,-3.7236328125,1.76171875
0.184,2.40234375,-3.5234375,1.12109375
0.1845,2.962890625,-3.5234375,0.560546875
0.185,3.1630859375,-2.8828125,-0.2802734375
0.1855,3.5234375,-2.5224609375,-0.9208984375
0.186,3.5634765625,-1.8017578125,-1.6416015625
0.1865,3.443359375,-1.2412109375,-2.08203125
0.187,3.4833984375,-0.640625,-2.72265625
0.1875,3.2431640625,-0.0400390625,-3.1630859375
0.188,2.8828125,0.6005859375,-3.4833984375
0.1885,2.3623046875,1.28125,-3.603515625
0.189,1.681640625,1.921875,-3.603515625
0.1895,0.9609375,2.40234375,-3.36328125
0.19,0.4404296875,3.04296875,-3.4833984375
0.1905,-0.3203125,3.1630859375,-2.9228515625
0.191,-0.9208984375,3.5234375,-2.72265625
0.1915,-1.521484375,3.5634765625,-2.1220703125
0.192,-1.921875,3.4833984375,-1.6416015625
0.1925,-2.4423828125,3.36328125,-1.0810546875
0.193,-2.8427734375,3.1630859375,-0.48046875
0.1935,-3.0830078125,2.6025390625,0.2802734375
0.194,-3.3232421875,2.2021484375,0.9208984375
0.1945,-3.36328125,1.6416015625,1.5615234375
0.195,-3.203125,1.0009765625,1.9619140625
0.1955,-3.36328125,0.5205078125,2.642578125
0.196,-2.9228515625,-0.16015625,2.9228515625
0.1965,-2.642578125,-0.80078125,3.283203125
0.197,-1.9619140625,-1.4814453125,3.3232421875
0.1975,-1.4013671875,-2.0419921875,3.3232421875
0.198,-0.6806640625,-2.5625,3.1630859375
0.1985,-0.16015625,-3.123046875,3.203125
0.199,0.560546875,-3.36328125,2.72265625
0.1995,1.12109375,-3.6435546875,2.5224609375
0.2,1.681640625,-3.7236328125,1.9619140625
0.2005,2.08203125,-3.5634765625,1.44140625
0.201,2.6826171875,-3.603515625,0.9208984375
0.2015,2.962890625,-3.123046875,0.16015625
0.202,3.283203125,-2.72265625,-0.48046875
0.2025,3.443359375,-2.162109375,-1.201171875
0.203,3.4833984375,-1.6416015625,-1.7216796875
0.2035,3.36328125,-1.0009765625,-2.2822265625
0.204,3.5234375,-0.5205078125,-2.8828125
0.2045,3.04296875,0.240234375,-3.203125
0.205,2.72265625,0.8408203125,-3.5234375
0.2055,2.0419921875,1.521484375,-3.5634765625
0.206,1.361328125,2.0419921875,-3.4033203125
0.2065,0.7607421875,2.6826171875,-3.443359375
0.207,0.1201171875,3.04296875,-3.203125
0.2075,-0.5205078125,3.3232421875,-2.8427734375
0.208,-1.12109375,3.4833984375,-2.4423828125
0.2085,-1.6416015625,3.5234375,-2.001953125
0.209,-2.001953125,3.3232421875,-1.4013671875
0.2095,-2.6025390625,3.36328125,-0.9208984375
0.21,-2.8427734375,2.7626953125,-0.080078125
0.2105,-3.203125,2.5224609375,0.48046875
0.211,-3.2431640625,1.8818359375,1.201171875
0.2115,-3.2431640625,1.4013671875,1.6416015625
0.212,-3.203125,0.7607421875,2.2421875
0.2125,-3.1630859375,0.2001953125,2.72265625
0.213,-2.72265625,-0.5205078125,3.0830078125
0.2135,-2.2822265625,-1.1611328125,3.2431640625
0.214,-1.681640625,-1.76171875,3.3232421875
0.2145,-1.0009765625,-2.2822265625,3.1630859375
0.215,-0.48046875,-2.962890625,3.3232421875
0.2155,0.2802734375,-3.203125,2.8427734375
0.216,0.880859375,-3.5634765625,2.6826171875
0.2165,1.44140625,-3.6435546875,2.162109375
0.217,1.921875,-3.68359375,1.76171875
0.2175,2.40234375,-3.5234375,1.0810546875
0.218,2.8828125,-3.36328125,0.5205078125
0.2185,3.1630859375,-2.7626953125,-0.3203125
0.219,3.443359375,-2.40234375,-1.0009765625
0.2195,3.4833984375,-1.7216796875,-1.6416015625
0.22,3.443359375,-1.1611328125,-2.162109375
0.2205,3.5234375,-0.6005859375,-2.8427734375
0.221,3.1630859375,0.080078125,-3.203125
0.2215,2.802734375,0.80078125,-3.5634765625
0.222,2.162109375,1.44140625,-3.5634765625
0.2225,1.521484375,2.0419921875,-3.5634765625
0.223,0.7607421875,2.5625,-3.36328125
0.2235,0.2001953125,3.1630859375,-3.36328125
0.224,-0.640625,3.3232421875,-2.7626953125
0.2245,-1.1611328125,3.5634765625,-2.5224609375
0.225,-1.76171875,3.5634765625,-1.8818359375
0.2255,-2.2021484375,3.443359375,-1.361328125
0.226,-2.72265625,3.283203125,-0.80078125
0.2265,-3.04296875,2.9228515625,-0.0400390625
0.227,-3.2431640625,2.3623046875,0.6806640625
