wavelength,x,y,z
0.0,4.454345703125,-23.773193359375,19.348876953125
0.0005,8.658447265625,-23.973388671875,15.425048828125
0.001,13.663330078125,-25.054443359375,11.461181640625
0.0015,16.826416015625,-23.973388671875,7.257080078125
0.002,20.750244140625,-23.212646484375,2.572509765625
0.0025,22.912353515625,-20.890380859375,-1.951904296875
0.003,24.994384765625,-18.688232421875,-6.356201171875
0.0035,24.994384765625,-14.564208984375,-10.520263671875
0.004,24.593994140625,-9.919677734375,-14.764404296875
0.0045,24.353759765625,-6.916748046875,-17.527099609375
0.005,22.231689453125,-1.111083984375,-21.210693359375
0.0055,20.389892578125,3.173095703125,-23.572998046875
0.006,16.866455078125,7.697509765625,-24.493896484375
0.0065,12.982666015625,12.542236328125,-25.614990234375
0.007,7.737548828125,16.065673828125,-24.013427734375
0.0075,3.973876953125,19.348876953125,-23.572998046875
0.008,-1.591552734375,21.911376953125,-20.730224609375
0.0085,-5.995849609375,24.393798828125,-18.928466796875
0.009,-10.560302734375,24.073486328125,-14.123779296875
0.0095,-15.044677734375,24.794189453125,-10.320068359375
0.01,-17.967529296875,23.793212890625,-6.396240234375
0.0105,-21.691162109375,22.552001953125,-1.311279296875
0.011,-23.492919921875,19.989501953125,3.093017578125
0.0115,-25.054443359375,17.226806640625,7.497314453125
0.012,-24.894287109375,12.822509765625,11.661376953125
0.0125,-24.213623046875,8.177978515625,15.705322265625
0.013,-23.853271484375,5.135009765625,18.307861328125
0.0135,-21.490966796875,-0.710693359375,21.791259765625
0.014,-19.689208984375,-4.754638671875,24.033447265625
0.0145,-15.244873046875,-9.399169921875,24.193603515625
0.015,-11.681396484375,-13.723388671875,25.034423828125
0.0155,-6.636474609375,-17.006591796875,23.392822265625
0.016,-2.272216796875,-20.169677734375,22.271728515625
0.0165,2.892822265625,-22.291748046875,19.388916015625
0.017,7.417236328125,-24.573974609375,17.226806640625
0.0175,11.821533203125,-23.933349609375,12.181884765625
0.018,15.825439453125,-24.213623046875,8.458251953125
0.0185,18.708251953125,-23.332763671875,4.734619140625
0.019,22.151611328125,-21.611083984375,-0.590576171875
0.0195,23.753173828125,-19.088623046875,-4.634521484375
0.02,24.714111328125,-15.765380859375,-8.998779296875
0.0205,24.634033203125,-11.841552734375,-12.842529296875
0.021,23.593017578125,-7.237060546875,-16.406005859375
0.0215,22.912353515625,-3.913818359375,-19.048583984375
0.022,20.550048828125,1.571533203125,-22.131591796875
0.0225,18.387939453125,5.935791015625,-24.333740234375
0.023,13.423095703125,10.420166015625,-23.893310546875
0.0235,10.099853515625,14.384033203125,-24.614013671875
0.024,5.455322265625,17.306884765625,-23.012451171875
0.0245,0.690673828125,20.510009765625,-21.531005859375
0.025,-3.713623046875,22.271728515625,-19.048583984375
0.0255,-8.598388671875,24.193603515625,-16.085693359375
0.026,-12.562255859375,23.552978515625,-11.481201171875
0.0265,-16.365966796875,23.432861328125,-7.637451171875
0.027,-18.928466796875,22.592041015625,-4.154052734375
0.0275,-22.091552734375,20.670166015625,1.010986328125
0.028,-23.492919921875,18.067626953125,5.094970703125
0.0285,-23.813232421875,14.023681640625,9.419189453125
0.029,-24.093505859375,10.580322265625,13.142822265625
0.0295,-22.812255859375,6.055908203125,16.385986328125
0.03,-21.931396484375,2.412353515625,19.188720703125
0.0305,-19.849365234375,-2.352294921875,21.791259765625
0.031,-17.246826171875,-7.076904296875,23.873291015625
0.0315,-12.322021484375,-11.120849609375,23.072509765625
0.032,-9.038818359375,-14.804443359375,23.593017578125
0.0325,-4.634521484375,-17.567138671875,21.991455078125
0.033,0.530517578125,-20.730224609375,20.069580078125
0.0335,4.414306640625,-22.171630859375,17.747314453125
0.034,9.619384765625,-23.613037109375,14.103759765625
0.0345,13.022705078125,-23.132568359375,10.219970703125
0.035,16.906494140625,-22.812255859375,6.055908203125
0.0355,19.428955078125,-21.891357421875,2.492431640625
0.036,22.231689453125,-19.889404296875,-2.392333984375
0.0365,23.552978515625,-17.086669921875,-6.476318359375
0.037,23.352783203125,-12.762451171875,-10.680419921875
0.0375,23.833251953125,-9.799560546875,-14.083740234375
0.038,22.351806640625,-5.155029296875,-17.246826171875
0.0385,21.110595703125,-0.990966796875,-20.209716796875
0.039,19.028564453125,3.253173828125,-22.291748046875
0.0395,15.585205078125,8.538330078125,-24.133544921875
0.04,10.820556640625,12.221923828125,-23.132568359375
0.0405,7.377197265625,15.865478515625,-23.372802734375
0.041,2.972900390625,18.427978515625,-21.651123046875
0.0415,-2.072021484375,21.430908203125,-19.769287109375
0.042,-5.955810546875,22.511962890625,-16.966552734375
0.0425,-11.200927734375,23.552978515625,-12.842529296875
0.043,-14.283935546875,23.152587890625,-9.399169921875
0.0435,-18.047607421875,22.431884765625,-4.914794921875
0.044,-20.449951171875,21.070556640625,-1.151123046875
0.0445,-22.652099609375,18.908447265625,3.333251953125
0.045,-23.693115234375,15.545166015625,7.777587890625
0.0455,-23.092529296875,10.900634765625,11.821533203125
0.046,-23.532958984375,8.137939453125,15.024658203125
0.0465,-21.811279296875,3.413330078125,18.027587890625
0.047,-20.449951171875,-0.990966796875,21.030517578125
0.0475,-17.927490234375,-4.914794921875,22.431884765625
0.048,-14.243896484375,-10.119873046875,23.953369140625
0.0485,-9.639404296875,-13.403076171875,22.752197265625
0.049,-5.875732421875,-16.966552734375,22.511962890625
0.0495,-1.231201171875,-19.368896484375,20.349853515625
0.05,3.373291015625,-22.011474609375,18.668212890625
0.0505,7.657470703125,-22.692138671875,15.104736328125
0.051,12.302001953125,-23.212646484375,10.940673828125
0.0515,15.304931640625,-23.012451171875,7.857666015625
0.052,18.948486328125,-21.891357421875,3.012939453125
0.0525,21.190673828125,-20.169677734375,-1.031005859375
0.053,22.872314453125,-17.967529296875,-4.914794921875
0.0535,23.753173828125,-14.404052734375,-9.399169921875
0.054,22.792236328125,-9.799560546875,-13.082763671875
0.0545,23.072509765625,-7.076904296875,-16.085693359375
0.055,21.070556640625,-2.072021484375,-19.048583984375
0.0555,19.709228515625,2.172119140625,-21.891357421875
0.056,16.345947265625,6.256103515625,-22.572021484375
0.0565,12.582275390625,11.180908203125,-23.853271484375
0.057,8.338134765625,14.143798828125,-22.772216796875
0.0575,4.174072265625,17.627197265625,-22.091552734375
0.058,-0.310302734375,19.789306640625,-19.849365234375
0.0585,-4.434326171875,22.151611328125,-18.207763671875
0.059,-8.998779296875,22.632080078125,-14.123779296875
0.0595,-13.162841796875,22.632080078125,-9.959716796875
0.06,-16.005615234375,22.632080078125,-7.197021484375
0.0605,-19.368896484375,21.110595703125,-2.232177734375
0.061,-21.490966796875,19.268798828125,1.771728515625
0.0615,-22.411865234375,16.586181640625,5.415283203125
0.062,-23.292724609375,12.982666015625,9.979736328125
0.0625,-22.251708984375,8.498291015625,13.383056640625
0.063,-22.291748046875,5.575439453125,16.385986328125
0.0635,-20.249755859375,0.890869140625,19.028564453125
0.064,-19.088623046875,-3.072998046875,21.791259765625
0.0645,-15.084716796875,-7.317138671875,21.951416015625
0.065,-11.401123046875,-11.761474609375,22.752197265625
0.0655,-7.717529296875,-14.604248046875,21.991455078125
0.066,-2.912841796875,-17.927490234375,20.670166015625
0.0665,1.211181640625,-19.809326171875,18.588134765625
0.067,5.175048828125,-21.731201171875,16.586181640625
0.0675,9.659423828125,-22.251708984375,12.662353515625
0.068,13.423095703125,-21.811279296875,8.458251953125
0.0685,16.345947265625,-22.051513671875,5.815673828125
0.069,19.388916015625,-20.209716796875,0.930908203125
0.0695,21.551025390625,-18.568115234375,-2.992919921875
0.07,21.911376953125,-15.405029296875,-6.556396484375
0.0705,22.832275390625,-12.081787109375,-10.840576171875
0.071,21.791259765625,-8.037841796875,-13.803466796875
0.0715,21.470947265625,-4.434326171875,-17.086669921875
0.072,19.509033203125,-0.190185546875,-19.408935546875
0.0725,17.947509765625,4.053955078125,-22.011474609375
0.073,13.623291015625,8.258056640625,-22.011474609375
0.0735,9.859619140625,12.342041015625,-22.411865234375
0.074,6.696533203125,15.064697265625,-21.931396484375
0.0745,1.571533203125,18.347900390625,-20.209716796875
0.075,-2.272216796875,20.189697265625,-18.367919921875
0.0755,-6.556396484375,21.591064453125,-15.485107421875
0.076,-10.800537109375,22.271728515625,-11.961669921875
0.0765,-14.243896484375,21.510986328125,-7.717529296875
0.077,-17.166748046875,21.470947265625,-4.834716796875
0.0775,-19.809326171875,19.549072265625,-0.270263671875
0.078,-21.851318359375,17.627197265625,3.853759765625
0.0785,-21.651123046875,13.743408203125,7.537353515625
0.079,-22.572021484375,10.500244140625,11.701416015625
0.0795,-21.531005859375,6.776611328125,14.384033203125
0.08,-20.810302734375,2.612548828125,17.827392578125
0.0805,-19.008544921875,-1.351318359375,19.869384765625
0.081,-16.646240234375,-5.755615234375,21.951416015625
0.0815,-12.522216796875,-9.759521484375,21.911376953125
0.082,-8.518310546875,-13.563232421875,21.791259765625
0.0825,-5.355224609375,-16.045654296875,21.190673828125
0.083,0.010009765625,-19.128662109375,19.068603515625
0.0835,3.693603515625,-20.930419921875,17.226806640625
0.084,8.258056640625,-21.611083984375,13.423095703125
0.0845,11.861572265625,-22.291748046875,10.500244140625
0.085,15.385009765625,-21.370849609375,6.095947265625
0.0855,18.267822265625,-20.930419921875,2.692626953125
0.086,20.510009765625,-18.888427734375,-1.631591796875
0.0865,22.391845703125,-16.646240234375,-5.795654296875
0.087,21.751220703125,-12.482177734375,-9.359130859375
0.0875,22.431884765625,-9.319091796875,-13.162841796875
0.088,21.390869140625,-5.755615234375,-15.685302734375
0.0885,20.069580078125,-1.071044921875,-19.088623046875
0.089,18.147705078125,2.692626953125,-20.850341796875
0.0895,14.784423828125,7.417236328125,-22.291748046875
0.09,11.180908203125,11.060791015625,-22.331787109375
0.0905,6.896728515625,14.624267578125,-21.731201171875
0.091,3.653564453125,17.026611328125,-20.890380859375
0.0915,-1.351318359375,19.709228515625,-18.768310546875
0.092,-5.315185546875,21.470947265625,-16.606201171875
0.0925,-9.759521484375,21.510986328125,-12.241943359375
0.093,-13.122802734375,22.151611328125,-9.599365234375
0.0935,-16.285888671875,21.110595703125,-5.315185546875
0.094,-19.088623046875,20.189697265625,-1.591552734375
0.0945,-20.810302734375,18.067626953125,2.292236328125
0.095,-22.291748046875,15.224853515625,6.696533203125
0.0955,-21.611083984375,11.060791015625,10.179931640625
0.096,-21.931396484375,7.817626953125,13.783447265625
0.0965,-20.930419921875,4.494384765625,16.065673828125
0.097,-19.489013671875,-0.310302734375,19.348876953125
0.0975,-17.326904296875,-3.993896484375,20.870361328125
0.098,-13.523193359375,-8.598388671875,21.751220703125
0.0985,-10.400146484375,-11.801513671875,21.911376953125
0.099,-5.995849609375,-15.164794921875,20.910400390625
0.0995,-2.192138671875,-17.567138671875,19.589111328125
0.1,2.052001953125,-19.849365234375,17.787353515625
0.1005,6.456298828125,-21.490966796875,15.064697265625
0.101,10.380126953125,-21.130615234375,10.820556640625
0.1015,13.743408203125,-21.771240234375,8.097900390625
0.102,16.706298828125,-20.690185546875,4.093994140625
0.1025,19.509033203125,-19.408935546875,0.010009765625
0.103,20.790283203125,-17.326904296875,-3.553466796875
0.1035,22.031494140625,-14.203857421875,-7.877685546875
0.104,21.510986328125,-10.520263671875,-11.080810546875
0.1045,21.430908203125,-6.916748046875,-14.604248046875
0.105,20.269775390625,-3.433349609375,-16.966552734375
0.1055,18.908447265625,0.970947265625,-19.969482421875
0.106,16.105712890625,5.215087890625,-21.290771484375
0.1065,12.101806640625,9.539306640625,-21.651123046875
0.107,9.218994140625,12.662353515625,-22.051513671875
0.1075,4.734619140625,15.865478515625,-20.810302734375
0.108,0.610595703125,18.347900390625,-19.248779296875
0.1085,-3.072998046875,20.189697265625,-17.567138671875
0.109,-7.997802734375,21.751220703125,-14.243896484375
0.1095,-11.521240234375,21.110595703125,-10.079833984375
0.11,-14.964599609375,21.631103515625,-7.197021484375
0.1105,-17.687255859375,20.309814453125,-3.153076171875
0.111,-20.329833984375,18.908447265625,1.051025390625
0.1115,-21.170654296875,16.145751953125,4.614501953125
0.112,-22.051513671875,12.622314453125,9.098876953125
0.1125,-21.731201171875,9.178955078125,12.181884765625
0.113,-21.250732421875,5.255126953125,15.585205078125
0.1135,-19.849365234375,1.411376953125,17.987548828125
0.114,-18.528076171875,-2.512451171875,20.590087890625
0.1145,-15.044677734375,-7.156982421875,21.791259765625
0.115,-10.880615234375,-11.080810546875,21.591064453125
0.1155,-7.997802734375,-14.123779296875,21.871337890625
0.116,-3.032958984375,-17.206787109375,20.029541015625
0.1165,1.291259765625,-19.689208984375,18.387939453125
0.117,4.854736328125,-20.970458984375,16.105712890625
0.1175,9.819580078125,-22.291748046875,12.542236328125
0.118,13.102783203125,-21.490966796875,8.458251953125
0.1185,16.626220703125,-21.731201171875,5.135009765625
0.119,19.188720703125,-19.969482421875,0.850830078125
0.1195,21.671142578125,-18.367919921875,-3.313232421875
0.12,22.031494140625,-15.084716796875,-6.996826171875
0.1205,22.552001953125,-11.361083984375,-11.281005859375
0.121,22.231689453125,-8.278076171875,-14.083740234375
0.1215,21.110595703125,-3.633544921875,-17.607177734375
0.122,19.468994140625,0.490478515625,-19.929443359375
0.1225,17.467041015625,4.494384765625,-22.011474609375
0.123,13.583251953125,9.259033203125,-22.932373046875
0.1235,9.098876953125,12.982666015625,-22.251708984375
0.124,6.216064453125,15.985595703125,-22.411865234375
0.1245,0.930908203125,18.908447265625,-20.129638671875
0.125,-3.353271484375,21.310791015625,-18.407958984375
0.1255,-7.237060546875,21.871337890625,-15.084716796875
0.126,-11.921630859375,22.992431640625,-11.561279296875
0.1265,-15.004638671875,21.951416015625,-7.517333984375
0.127,-18.568115234375,21.711181640625,-3.633544921875
0.1275,-20.690185546875,19.549072265625,0.690673828125
0.128,-22.812255859375,17.507080078125,4.934814453125
0.1285,-22.652099609375,13.583251953125,8.698486328125
0.129,-22.892333984375,9.619384765625,12.942626953125
0.1295,-22.451904296875,6.616455078125,15.465087890625
0.13,-20.890380859375,1.571533203125,18.988525390625
0.1305,-19.088623046875,-2.512451171875,21.150634765625
0.131,-16.285888671875,-6.636474609375,22.471923828125
0.1315,-12.602294921875,-11.040771484375,23.312744140625
0.132,-7.877685546875,-14.484130859375,22.111572265625
0.1325,-4.554443359375,-17.447021484375,21.751220703125
0.133,0.850830078125,-20.009521484375,19.148681640625
0.1335,4.974853515625,-22.331787109375,17.427001953125
0.134,9.098876953125,-22.251708984375,13.182861328125
0.1345,13.262939453125,-23.092529296875,9.939697265625
0.135,16.305908203125,-22.091552734375,5.935791015625
0.1355,19.789306640625,-21.290771484375,1.571533203125
0.136,21.631103515625,-19.048583984375,-2.592529296875
0.1365,23.352783203125,-16.646240234375,-6.756591796875
0.137,23.032470703125,-12.682373046875,-10.480224609375
0.1375,22.872314453125,-8.678466796875,-14.364013671875
0.138,22.431884765625,-5.635498046875,-16.806396484375
0.1385,20.429931640625,-0.270263671875,-20.209716796875
0.139,18.548095703125,3.813720703125,-22.371826171875
0.1395,14.704345703125,8.298095703125,-23.012451171875
0.14,11.341064453125,12.342041015625,-23.773193359375
0.1405,6.536376953125,15.665283203125,-22.411865234375
0.141,2.772705078125,18.628173828125,-21.691162109375
0.1415,-2.192138671875,20.950439453125,-19.168701171875
0.142,-6.596435546875,23.112548828125,-17.006591796875
0.1425,-10.840576171875,22.672119140625,-12.322021484375
0.143,-14.764404296875,23.312744140625,-9.038818359375
0.1435,-17.687255859375,22.271728515625,-5.114990234375
0.144,-21.010498046875,20.990478515625,-0.470458984375
0.1445,-22.531982421875,18.468017578125,3.693603515625
0.145,-23.773193359375,15.224853515625,8.097900390625
0.1455,-23.452880859375,11.260986328125,11.821533203125
0.146,-23.012451171875,7.056884765625,15.665283203125
0.1465,-22.291748046875,3.813720703125,18.107666015625
0.147,-20.209716796875,-1.551513671875,21.310791015625
0.1475,-17.927490234375,-5.755615234375,23.272705078125
0.148,-13.403076171875,-10.320068359375,23.312744140625
0.1485,-10.239990234375,-13.963623046875,23.833251953125
0.149,-5.195068359375,-17.246826171875,22.271728515625
0.1495,-0.670654296875,-20.249755859375,20.790283203125
0.15,3.773681640625,-22.051513671875,18.307861328125
0.1505,8.698486328125,-23.973388671875,15.304931640625
0.151,12.662353515625,-23.172607421875,10.580322265625
0.1515,16.506103515625,-23.452880859375,7.056884765625
0.152,19.428955078125,-22.211669921875,2.852783203125
0.1525,22.552001953125,-20.489990234375,-2.072021484375
0.153,23.633056640625,-17.807373046875,-5.915771484375
0.1535,24.393798828125,-14.043701171875,-10.560302734375
0.154,24.073486328125,-10.239990234375,-13.923583984375
0.1545,23.192626953125,-5.715576171875,-17.567138671875
0.155,21.831298828125,-1.791748046875,-20.129638671875
0.1555,19.789306640625,3.133056640625,-22.852294921875
0.156,16.546142578125,7.937744140625,-24.533935546875
0.1565,11.581298828125,12.342041015625,-24.053466796875
0.157,8.458251953125,15.745361328125,-24.333740234375
0.1575,3.253173828125,18.948486328125,-22.451904296875
0.158,-1.631591796875,21.831298828125,-20.610107421875
0.1585,-5.515380859375,23.112548828125,-18.087646484375
0.159,-10.920654296875,24.674072265625,-14.283935546875
0.1595,-14.484130859375,23.593017578125,-9.639404296875
0.16,-18.287841796875,23.673095703125,-5.875732421875
0.1605,-21.010498046875,21.911376953125,-1.431396484375
0.161,-23.693115234375,19.869384765625,3.373291015625
0.1615,-24.293701171875,16.586181640625,7.297119140625
0.162,-24.654052734375,12.261962890625,12.021728515625
0.1625,-24.293701171875,8.738525390625,15.184814453125
0.163,-23.052490234375,3.893798828125,18.828369140625
0.1635,-21.290771484375,-0.470458984375,21.350830078125
0.164,-19.248779296875,-4.674560546875,23.512939453125
0.1645,-15.485107421875,-9.759521484375,24.834228515625
0.165,-10.520263671875,-13.723388671875,23.833251953125
0.1655,-7.197021484375,-17.006591796875,23.993408203125
0.166,-1.671630859375,-20.089599609375,21.631103515625
0.1665,3.213134765625,-22.772216796875,19.549072265625
0.167,6.936767578125,-23.452880859375,16.586181640625
0.1675,12.302001953125,-24.734130859375,12.542236328125
0.168,15.545166015625,-23.572998046875,8.177978515625
0.1685,19.468994140625,-23.412841796875,4.013916015625
0.169,21.911376953125,-21.410888671875,-0.590576171875
0.1695,24.313720703125,-19.368896484375,-5.034912109375
0.17,24.513916015625,-15.645263671875,-8.958740234375
0.1705,24.473876953125,-11.200927734375,-13.403076171875
0.171,24.273681640625,-8.037841796875,-16.365966796875
0.1715,22.552001953125,-2.672607421875,-19.929443359375
0.172,20.710205078125,1.731689453125,-22.451904296875
0.1725,18.107666015625,5.895751953125,-23.973388671875
0.173,14.063720703125,11.020751953125,-25.134521484375
0.1735,8.978759765625,14.744384765625,-23.853271484375
0.174,5.615478515625,18.067626953125,-23.893310546875
0.1745,0.090087890625,20.870361328125,-21.290771484375
0.175,-4.514404296875,23.432861328125,-19.408935546875
0.1755,-8.478271484375,23.633056640625,-15.645263671875
0.176,-13.523193359375,24.634033203125,-11.601318359375
0.1765,-16.566162109375,23.552978515625,-7.557373046875
0.177,-20.409912109375,22.872314453125,-2.992919921875
0.1775,-22.491943359375,20.630126953125,1.491455078125
0.178,-24.493896484375,18.227783203125,5.815673828125
0.1785,-24.493896484375,14.143798828125,9.979736328125
0.179,-24.173583984375,9.579345703125,14.263916015625
0.1795,-24.013427734375,6.576416015625,17.026611328125
0.18,-21.971435546875,0.970947265625,20.630126953125
0.1805,-20.209716796875,-3.193115234375,22.992431640625
