wavelength,x,y,z
0.0,8.9637451171875,15.970581054688,-23.387817382812
0.0005,2.9178466796875,18.813354492188,-21.505981445312
0.001,-1.9669189453125,20.615112304688,-18.583129882812
0.0015,-6.5313720703125,24.338745117188,-16.581176757812
0.002,-11.856567382812,23.978393554688,-12.136840820312
0.0025,-15.500122070312,23.257690429688,-8.0128173828125
0.003,-17.822387695312,23.297729492188,-5.7305908203125
0.0035,-20.384887695312,20.615112304688,-0.5255126953125
0.004,-22.506958007812,18.332885742188,3.9188232421875
0.0045,-23.948364257812,15.249877929688,8.3631591796875
0.005,-24.308715820312,10.965698242188,12.927612304688
0.0055,-23.347778320312,7.1619873046875,15.770385742188
0.006,-22.587036132812,3.7987060546875,18.292846679688
0.0065,-19.744262695312,-0.0050048828125,20.214721679688
0.007,-18.102661132812,-5.9307861328125,23.097534179688
0.0075,-14.138793945312,-10.855590820312,23.938354492188
0.008,-9.7745361328125,-14.939575195312,23.578002929688
0.0085,-7.0919189453125,-17.341918945312,23.097534179688
0.009,-1.6065673828125,-20.024536132812,20.334838867188
0.0095,3.1580810546875,-21.986450195312,17.652221679688
0.01,7.9627685546875,-24.228637695312,15.209838867188
0.0105,12.847534179688,-24.468872070312,10.725463867188
0.011,15.930541992188,-23.748168945312,7.0819091796875
0.0115,18.292846679688,-23.267700195312,4.2391357421875
0.012,20.655151367188,-20.585083007812,-0.7657470703125
0.0125,23.177612304688,-18.222778320312,-5.6505126953125
0.013,23.658081054688,-14.419067382812,-9.8946533203125
0.0135,23.978393554688,-10.415161132812,-12.817504882812
0.014,24.338745117188,-7.1719970703125,-16.380981445312
0.0145,21.576049804688,-3.0880126953125,-18.903442382812
0.015,18.893432617188,1.7567138671875,-20.865356445312
0.0155,17.051635742188,6.7215576171875,-23.788208007812
0.016,12.407104492188,12.807495117188,-23.868286132812
0.0165,8.3631591796875,15.129760742188,-23.347778320312
0.017,5.6405029296875,17.211791992188,-22.627075195312
0.0175,-0.3653564453125,19.934448242188,-19.544067382812
0.018,-4.8096923828125,22.016479492188,-17.141723632812
0.0185,-9.9747314453125,23.658081054688,-13.738403320312
0.019,-14.058715820312,23.658081054688,-9.8145751953125
0.0195,-16.821411132812,22.897338867188,-6.3712158203125
0.02,-19.063598632812,21.696166992188,-2.9278564453125
0.0205,-21.305786132812,19.093627929688,1.9168701171875
0.021,-23.988403320312,17.932495117188,7.0018310546875
0.0215,-23.547973632812,12.166870117188,10.925659179688
0.022,-23.908325195312,8.7235107421875,14.729370117188
0.0225,-22.867309570312,5.6004638671875,16.771362304688
0.023,-20.785278320312,0.7957763671875,19.373901367188
0.0235,-18.422973632812,-2.5675048828125,21.455932617188
0.024,-15.980590820312,-9.1339111328125,24.058471679688
0.0245,-11.416137695312,-13.217895507812,23.497924804688
0.025,-7.7725830078125,-16.541137695312,23.017456054688
0.0255,-4.4493408203125,-18.302856445312,21.415893554688
0.026,1.3963623046875,-21.065551757812,18.533081054688
0.0265,6.0809326171875,-23.387817382812,16.290893554688
0.027,11.245971679688,-24.068481445312,11.846557617188
0.0275,14.569213867188,-24.308715820312,10.244995117188
0.028,17.291870117188,-23.267700195312,5.2401123046875
0.0285,19.494018554688,-21.586059570312,1.3963623046875
0.029,21.736206054688,-18.943481445312,-3.4884033203125
0.0295,24.298706054688,-16.220825195312,-8.6934814453125
0.03,23.257690429688,-11.376098632812,-12.457153320312
0.0305,23.537963867188,-8.4132080078125,-15.700317382812
0.031,22.056518554688,-5.1700439453125,-17.421997070312
0.0315,19.854370117188,0.0350341796875,-20.184692382812
0.032,17.532104492188,4.7196044921875,-22.386840820312
0.0325,14.008666992188,10.204956054688,-24.228637695312
0.033,9.9246826171875,13.688354492188,-23.467895507812
0.0335,6.2811279296875,16.731323242188,-22.867309570312
0.034,2.3172607421875,18.453002929688,-19.223754882812
0.0345,-3.0479736328125,21.055541992188,-16.661254882812
0.035,-8.1729736328125,23.618041992188,-15.460083007812
0.0355,-12.937622070312,23.177612304688,-10.295043945312
0.036,-15.660278320312,23.618041992188,-8.1329345703125
0.0365,-18.222778320312,21.976440429688,-4.0089111328125
0.037,-20.464965820312,20.094604492188,0.1551513671875
0.0375,-22.546997070312,17.331909179688,4.9197998046875
0.038,-24.388793945312,15.369995117188,9.9647216796875
0.0385,-23.387817382812,9.5643310546875,13.448120117188
0.039,-23.387817382812,6.6014404296875,16.330932617188
0.0395,-21.465942382812,2.9178466796875,19.213745117188
0.04,-19.303833007812,-2.2872314453125,20.775268554688
0.0405,-16.981567382812,-7.1719970703125,23.177612304688
0.041,-12.577270507812,-12.256958007812,23.698120117188
0.0415,-9.4942626953125,-15.139770507812,23.377807617188
0.042,-5.3702392578125,-16.661254882812,22.016479492188
0.0425,-0.8858642578125,-19.824340820312,19.453979492188
0.043,3.9989013671875,-22.106567382812,17.051635742188
0.0435,9.6043701171875,-24.669067382812,15.369995117188
0.044,13.568237304688,-23.588012695312,9.1239013671875
0.0445,16.290893554688,-24.188598632812,7.1219482421875
0.045,18.573120117188,-21.946411132812,2.6776123046875
0.0455,21.055541992188,-20.064575195312,-1.7266845703125
0.046,24.338745117188,-17.261840820312,-6.4913330078125
0.0465,24.098510742188,-13.257934570312,-11.416137695312
0.047,23.337768554688,-9.4942626953125,-14.459106445312
0.0475,22.857299804688,-6.1710205078125,-17.141723632812
0.048,20.535034179688,-2.2872314453125,-18.663208007812
0.0485,18.533081054688,2.7576904296875,-21.505981445312
0.049,15.810424804688,8.1629638671875,-24.028442382812
0.0495,10.725463867188,14.088745117188,-23.547973632812
0.05,8.3631591796875,15.490112304688,-23.588012695312
0.0505,3.5584716796875,17.972534179688,-21.265747070312
0.051,-0.0050048828125,20.214721679688,-18.823364257812
0.0515,-5.6505126953125,22.256713867188,-16.541137695312
0.052,-10.255004882812,24.138549804688,-12.617309570312
0.0525,-14.739379882812,22.977416992188,-8.4132080078125
0.053,-17.502075195312,23.137573242188,-5.8507080078125
0.0535,-19.463989257812,20.535034179688,-1.4063720703125
0.054,-22.066528320312,18.533081054688,3.2381591796875
0.0545,-23.668090820312,15.530151367188,7.8026123046875
0.055,-23.868286132812,11.005737304688,12.487182617188
0.0555,-23.547973632812,8.0028076171875,15.089721679688
0.056,-22.186645507812,3.9588623046875,17.692260742188
0.0565,-19.864379882812,-0.4053955078125,19.494018554688
0.057,-17.982543945312,-5.0098876953125,22.096557617188
0.0575,-14.699340820312,-10.535278320312,24.138549804688
0.058,-9.8546142578125,-14.258911132812,22.937377929688
0.0585,-7.5723876953125,-16.821411132812,23.177612304688
0.059,-2.2872314453125,-19.023559570312,20.014526367188
0.0595,2.5174560546875,-21.505981445312,17.892456054688
0.06,6.8817138671875,-23.347778320312,15.410034179688
0.0605,12.447143554688,-24.388793945312,11.045776367188
0.061,15.049682617188,-23.547973632812,7.7225341796875
0.0615,19.213745117188,-22.947387695312,4.3192138671875
0.062,19.694213867188,-20.464965820312,0.1151123046875
0.0625,22.416870117188,-18.302856445312,-4.7696533203125
0.063,23.417846679688,-14.899536132812,-9.1739501953125
0.0635,23.217651367188,-10.335083007812,-13.458129882812
0.064,24.338745117188,-7.9727783203125,-15.660278320312
0.0645,20.975463867188,-3.4083251953125,-18.022583007812
0.065,18.893432617188,0.9158935546875,-20.104614257812
0.0655,16.931518554688,5.5604248046875,-22.627075195312
0.066,13.007690429688,11.005737304688,-23.948364257812
0.0665,8.5633544921875,14.248901367188,-22.587036132812
0.067,5.9608154296875,16.731323242188,-22.466918945312
0.0675,0.5155029296875,18.813354492188,-19.103637695312
0.068,-3.9288330078125,21.375854492188,-17.341918945312
0.0685,-8.6934814453125,22.697143554688,-14.058715820312
0.069,-13.418090820312,23.177612304688,-9.8946533203125
0.0695,-15.700317382812,22.697143554688,-7.2120361328125
0.07,-18.463012695312,21.175659179688,-3.0479736328125
0.0705,-20.224731445312,18.853393554688,1.0760498046875
0.071,-22.787231445312,17.932495117188,5.8006591796875
0.0715,-23.227661132812,12.767456054688,10.084838867188
0.072,-22.907348632812,8.6033935546875,13.888549804688
0.0725,-22.787231445312,6.3211669921875,15.970581054688
0.073,-20.064575195312,1.1961669921875,18.252807617188
0.0735,-18.463012695312,-3.0880126953125,20.615112304688
0.074,-15.940551757812,-7.7725830078125,22.777221679688
0.0745,-11.896606445312,-12.537231445312,23.337768554688
0.075,-8.2130126953125,-15.339965820312,22.336791992188
0.0755,-4.6895751953125,-17.782348632812,21.175659179688
0.076,0.6356201171875,-19.824340820312,18.052612304688
0.0765,5.0799560546875,-22.587036132812,16.451049804688
0.077,9.9246826171875,-23.187622070312,12.286987304688
0.0775,13.808471679688,-23.467895507812,8.8035888671875
0.078,16.050659179688,-21.786254882812,6.3211669921875
0.0785,18.693237304688,-21.025512695312,1.5965576171875
0.079,20.695190429688,-18.663208007812,-2.7276611328125
0.0795,22.937377929688,-16.220825195312,-7.3721923828125
0.08,22.937377929688,-12.056762695312,-11.496215820312
0.0805,22.456909179688,-8.4132080078125,-14.659301757812
0.081,21.896362304688,-5.8907470703125,-16.621215820312
0.0815,19.133666992188,-0.6856689453125,-18.903442382812
0.082,17.652221679688,5.1199951171875,-21.626098632812
0.0825,14.128784179688,8.7635498046875,-22.907348632812
0.083,10.204956054688,12.927612304688,-21.786254882812
0.0835,7.0418701171875,15.490112304688,-22.306762695312
0.084,2.5975341796875,17.852416992188,-20.224731445312
0.0845,-2.2872314453125,19.814331054688,-17.421997070312
0.085,-7.0118408203125,22.657104492188,-15.580200195312
0.0855,-11.656372070312,22.456909179688,-10.855590820312
0.086,-14.779418945312,22.617065429688,-8.0128173828125
0.0865,-16.941528320312,21.856323242188,-5.2100830078125
0.087,-19.383911132812,19.494018554688,-0.4854736328125
0.0875,-21.546020507812,17.131713867188,4.1190185546875
0.088,-22.907348632812,15.369995117188,8.4432373046875
0.0885,-23.027465820312,10.164916992188,12.367065429688
0.089,-22.346801757812,6.7615966796875,15.049682617188
0.0895,-21.145629882812,3.5184326171875,16.971557617188
0.09,-18.543090820312,-1.4864501953125,19.253784179688
0.0905,-17.101684570312,-6.1710205078125,22.416870117188
0.091,-12.737426757812,-10.735473632812,22.456909179688
0.0915,-9.6143798828125,-14.178833007812,22.657104492188
0.092,-5.1300048828125,-16.380981445312,21.616088867188
0.0925,-1.4464111328125,-18.863403320312,19.093627929688
0.093,3.1580810546875,-20.825317382812,16.571166992188
0.0935,8.2830810546875,-23.387817382812,15.369995117188
0.094,12.206909179688,-22.947387695312,9.8446044921875
0.0945,15.089721679688,-22.947387695312,7.0819091796875
0.095,17.011596679688,-21.706176757812,3.9588623046875
0.0955,19.494018554688,-19.383911132812,-0.8057861328125
0.096,22.056518554688,-17.021606445312,-5.6905517578125
0.0965,22.256713867188,-13.177856445312,-9.7344970703125
0.097,22.577026367188,-10.054809570312,-13.177856445312
0.0975,21.696166992188,-6.7716064453125,-15.460083007812
0.098,20.014526367188,-2.9678955078125,-17.462036132812
0.0985,17.652221679688,1.8367919921875,-19.704223632812
0.099,15.850463867188,7.0018310546875,-22.867309570312
0.0995,11.085815429688,11.045776367188,-22.066528320312
0.1,8.2830810546875,14.208862304688,-22.346801757812
0.1005,4.9598388671875,15.970581054688,-20.705200195312
0.101,-0.2852783203125,18.613159179688,-18.222778320312
0.1015,-4.6495361328125,20.655151367188,-16.020629882812
0.102,-9.8946533203125,22.256713867188,-12.377075195312
0.1025,-12.977661132812,22.056518554688,-9.2540283203125
0.103,-15.740356445312,21.616088867188,-6.1309814453125
0.1035,-17.462036132812,20.014526367188,-2.8878173828125
0.104,-19.824340820312,17.772338867188,1.7967529296875
0.1045,-22.426879882812,16.651245117188,6.6815185546875
0.105,-20.505004882812,10.965698242188,10.365112304688
0.1055,-22.426879882812,8.4432373046875,13.448120117188
0.106,-21.025512695312,6.4012451171875,15.450073242188
0.1065,-17.942504882812,0.9158935546875,17.772338867188
0.107,-17.181762695312,-3.6085205078125,19.974487304688
0.1075,-14.579223632812,-7.6925048828125,22.577026367188
0.108,-10.455200195312,-12.216918945312,21.616088867188
0.1085,-7.7325439453125,-15.259887695312,23.057495117188
0.109,-4.0089111328125,-16.701293945312,19.494018554688
0.1095,1.1160888671875,-19.423950195312,17.291870117188
0.11,5.7205810546875,-21.866333007812,15.169799804688
0.1105,10.565307617188,-22.346801757812,10.845581054688
0.111,13.167846679688,-22.707153320312,8.7235107421875
0.1115,15.850463867188,-21.666137695312,5.0799560546875
0.112,17.732299804688,-19.944458007812,1.5965576171875
0.1125,20.094604492188,-17.782348632812,-3.1280517578125
0.113,22.416870117188,-14.939575195312,-8.0928955078125
0.1135,21.415893554688,-10.575317382812,-11.496215820312
0.114,22.016479492188,-8.3731689453125,-14.178833007812
0.1145,20.214721679688,-4.8096923828125,-15.860473632812
0.115,18.453002929688,-0.3653564453125,-18.463012695312
0.1155,16.411010742188,4.3992919921875,-20.905395507812
0.116,12.767456054688,9.7244873046875,-22.506958007812
0.1165,9.4041748046875,12.527221679688,-20.505004882812
0.117,6.2410888671875,16.651245117188,-21.425903320312
0.1175,1.9569091796875,17.011596679688,-18.783325195312
0.118,-2.6075439453125,19.494018554688,-16.821411132812
0.1185,-7.8526611328125,22.056518554688,-14.258911132812
0.119,-12.016723632812,21.495971679688,-9.6544189453125
0.1195,-14.419067382812,22.136596679688,-7.9727783203125
0.12,-16.821411132812,20.334838867188,-3.8087158203125
0.1205,-18.903442382812,18.573120117188,1.2762451171875
0.121,-21.105590820312,16.250854492188,4.4793701171875
0.1215,-22.587036132812,12.767456054688,9.3641357421875
0.122,-21.746215820312,10.244995117188,12.407104492188
0.1225,-21.946411132812,6.4813232421875,15.009643554688
0.123,-19.584106445312,2.4373779296875,16.611206054688
0.1235,-18.062622070312,-1.9669189453125,19.293823242188
0.124,-15.780395507812,-6.8917236328125,23.057495117188
0.1245,-11.496215820312,-11.576293945312,22.056518554688
0.125,-7.6925048828125,-14.018676757812,21.896362304688
0.1255,-5.0098876953125,-16.621215820312,20.374877929688
0.126,-0.5655517578125,-18.543090820312,17.852416992188
0.1265,3.7586669921875,-20.825317382812,16.010620117188
0.127,9.2440185546875,-22.947387695312,12.767456054688
0.1275,12.567260742188,-22.106567382812,8.6434326171875
0.128,15.089721679688,-22.627075195312,6.7615966796875
0.1285,17.251831054688,-20.384887695312,2.4373779296875
0.129,19.574096679688,-18.623168945312,-1.7266845703125
0.1295,21.455932617188,-16.100708007812,-6.0909423828125
0.13,22.216674804688,-12.056762695312,-10.695434570312
0.1305,21.656127929688,-7.6925048828125,-13.257934570312
0.131,21.175659179688,-5.9307861328125,-15.740356445312
0.1315,18.733276367188,-1.8067626953125,-17.381958007812
0.132,17.251831054688,2.6375732421875,-20.064575195312
0.1325,14.409057617188,7.8026123046875,-22.306762695312
0.133,9.9246826171875,11.886596679688,-21.666137695312
0.1335,7.8426513671875,14.328979492188,-21.986450195312
0.134,3.1180419921875,16.571166992188,-19.423950195312
0.1345,-0.0050048828125,18.693237304688,-17.341918945312
0.135,-5.4503173828125,20.775268554688,-15.299926757812
0.1355,-10.815551757812,22.136596679688,-11.416137695312
0.136,-13.458129882812,21.375854492188,-8.0928955078125
0.1365,-16.100708007812,21.295776367188,-5.4903564453125
0.137,-16.661254882812,18.893432617188,-1.3262939453125
0.1375,-20.424926757812,17.011596679688,3.0379638671875
0.138,-21.746215820312,14.208862304688,7.1619873046875
0.1385,-22.066528320312,10.124877929688,12.807495117188
0.139,-21.826293945312,7.6424560546875,13.768432617188
0.1395,-20.384887695312,3.6785888671875,16.170776367188
0.14,-18.302856445312,-0.4454345703125,18.052612304688
0.1405,-16.701293945312,-4.8897705078125,20.775268554688
0.141,-13.378051757812,-9.8546142578125,22.256713867188
0.1415,-9.2940673828125,-13.177856445312,21.415893554688
0.142,-7.0919189453125,-15.580200195312,21.455932617188
0.1425,-1.9669189453125,-17.742309570312,18.493041992188
0.143,2.3973388671875,-20.104614257812,17.932495117188
0.1435,6.8817138671875,-21.946411132812,14.048706054688
0.144,11.646362304688,-22.707153320312,10.204956054688
0.1445,14.008666992188,-22.226684570312,7.4022216796875
0.145,17.932495117188,-21.425903320312,3.9588623046875
0.1455,18.533081054688,-19.103637695312,-0.2052001953125
0.146,21.255737304688,-17.101684570312,-4.8497314453125
0.1465,23.057495117188,-13.538208007812,-8.8536376953125
0.147,21.896362304688,-9.6944580078125,-12.777465820312
0.1475,21.736206054688,-7.4923095703125,-14.779418945312
0.148,19.654174804688,-2.9678955078125,-17.061645507812
0.1485,17.772338867188,1.3162841796875,-17.942504882812
0.149,15.650268554688,6.0809326171875,-21.826293945312
0.1495,11.806518554688,10.845581054688,-22.587036132812
0.15,8.0428466796875,13.808471679688,-21.746215820312
0.1505,5.1600341796875,16.130737304688,-21.065551757812
0.151,-0.2052001953125,18.292846679688,-17.982543945312
0.1515,-4.4493408203125,20.855346679688,-16.380981445312
0.152,-9.3741455078125,21.816284179688,-12.537231445312
0.1525,-13.257934570312,22.296752929688,-9.2940673828125
0.153,-15.540161132812,21.736206054688,-6.4913330078125
0.1535,-18.022583007812,20.134643554688,-2.4874267578125
0.154,-19.904418945312,17.732299804688,1.9168701171875
0.1545,-22.506958007812,15.530151367188,6.6414794921875
0.155,-22.386840820312,11.486206054688,10.525268554688
0.1555,-22.386840820312,7.9627685546875,13.968627929688
0.156,-21.746215820312,5.4002685546875,15.850463867188
0.1565,-17.942504882812,0.3953857421875,18.212768554688
0.157,-17.502075195312,-4.0089111328125,20.655151367188
0.1575,-14.499145507812,-9.0137939453125,22.536987304688
0.158,-10.855590820312,-12.977661132812,22.697143554688
0.1585,-7.4122314453125,-15.660278320312,21.856323242188
0.159,-3.5684814453125,-17.822387695312,20.134643554688
0.1595,1.5965576171875,-19.944458007812,17.251831054688
0.16,6.3211669921875,-22.827270507812,15.490112304688
0.1605,11.005737304688,-22.907348632812,10.885620117188
0.161,14.208862304688,-23.307739257812,8.2030029296875
0.1615,16.491088867188,-22.426879882812,5.1600341796875
0.162,18.853393554688,-20.344848632812,0.8358154296875
0.1625,20.975463867188,-17.782348632812,-3.8887939453125
0.163,22.897338867188,-14.939575195312,-8.6134033203125
0.1635,22.617065429688,-10.895629882812,-12.256958007812
0.164,22.256713867188,-7.6524658203125,-15.139770507812
0.1645,21.095581054688,-4.6495361328125,-16.861450195312
0.165,18.533081054688,0.4754638671875,-19.263793945312
0.1655,16.771362304688,5.1600341796875,-22.106567382812
0.166,12.647338867188,10.204956054688,-22.787231445312
0.1665,9.4041748046875,13.608276367188,-22.867309570312
0.167,6.0008544921875,15.970581054688,-20.505004882812
0.1675,1.3963623046875,18.212768554688,-19.383911132812
0.168,-3.2882080078125,20.134643554688,-16.741333007812
0.1685,-8.5333251953125,22.897338867188,-14.459106445312
0.169,-12.577270507812,22.216674804688,-9.7745361328125
0.1695,-15.460083007812,22.536987304688,-7.3721923828125
0.17,-17.421997070312,21.055541992188,-3.9288330078125
0.1705,-19.744262695312,18.933471679688,0.5555419921875
0.171,-21.986450195312,16.330932617188,5.4002685546875
0.1715,-22.907348632812,12.687377929688,9.8446044921875
0.172,-22.947387695312,9.2840576171875,13.247924804688
0.1725,-22.146606445312,6.0008544921875,15.650268554688
0.173,-20.384887695312,2.3572998046875,17.452026367188
0.1735,-18.142700195312,-2.4473876953125,19.814331054688
0.174,-16.180786132812,-7.6124267578125,22.897338867188
0.1745,-10.255004882812,-11.936645507812,22.416870117188
0.175,-8.8536376953125,-14.979614257812,22.657104492188
0.1755,-5.2100830078125,-16.981567382812,20.935424804688
0.176,-0.2852783203125,-19.423950195312,18.493041992188
0.1765,4.3192138671875,-21.465942382812,16.010620117188
0.177,9.8846435546875,-23.708129882812,14.088745117188
0.1775,13.127807617188,-21.786254882812,9.0037841796875
0.178,16.010620117188,-23.027465820312,6.2811279296875
