wavelength,x,y,z
0.0,-0.70068359375,-6.06591796875,4.78466796875
0.0005,-1.74169921875,-5.30517578125,5.10498046875
0.001,-3.02294921875,-4.34423828125,5.62548828125
0.0015,-4.02392578125,-3.26318359375,5.82568359375
0.002,-4.74462890625,-2.26220703125,5.82568359375
0.0025,-5.14501953125,-1.54150390625,5.82568359375
0.003,-5.10498046875,-0.70068359375,5.22509765625
0.0035,-5.02490234375,0.34033203125,4.46435546875
0.004,-5.10498046875,1.58154296875,3.62353515625
0.0045,-4.98486328125,2.66259765625,2.58251953125
0.005,-4.82470703125,3.58349609375,1.74169921875
0.0055,-4.50439453125,4.26416015625,0.94091796875
0.006,-3.70361328125,4.50439453125,0.02001953125
0.0065,-2.74267578125,4.86474609375,-1.34130859375
0.007,-1.74169921875,5.22509765625,-2.62255859375
0.0075,-0.86083984375,5.38525390625,-3.66357421875
0.008,-0.18017578125,5.66552734375,-4.62451171875
0.0085,0.86083984375,5.14501953125,-5.18505859375
0.009,1.98193359375,4.22412109375,-5.54541015625
0.0095,3.22314453125,3.18310546875,-6.06591796875
0.01,4.14404296875,2.10205078125,-6.10595703125
0.0105,4.82470703125,1.22119140625,-6.10595703125
0.011,5.02490234375,0.46044921875,-5.82568359375
0.0115,4.86474609375,-0.62060546875,-5.10498046875
0.012,4.82470703125,-1.70166015625,-4.18408203125
0.0125,4.82470703125,-2.94287109375,-3.18310546875
0.013,4.62451171875,-3.94384765625,-2.22216796875
0.0135,4.50439453125,-4.82470703125,-1.38134765625
0.014,3.90380859375,-5.26513671875,-0.50048828125
0.0145,2.86279296875,-5.38525390625,0.62060546875
0.015,1.86181640625,-5.82568359375,2.06201171875
0.0155,0.74072265625,-6.02587890625,3.26318359375
0.016,0.02001953125,-6.18603515625,4.22412109375
0.0165,-0.82080078125,-6.26611328125,5.06494140625
0.017,-1.86181640625,-5.50537109375,5.42529296875
0.0175,-3.14306640625,-4.46435546875,5.78564453125
0.018,-4.26416015625,-3.26318359375,6.10595703125
0.0185,-4.98486328125,-2.18212890625,6.06591796875
0.019,-5.46533203125,-1.34130859375,6.02587890625
0.0195,-5.42529296875,-0.54052734375,5.46533203125
0.02,-5.22509765625,0.54052734375,4.54443359375
0.0205,-5.26513671875,1.78173828125,3.58349609375
0.021,-5.14501953125,2.98291015625,2.54248046875
0.0215,-4.86474609375,3.90380859375,1.58154296875
0.022,-4.66455078125,4.62451171875,0.78076171875
0.0225,-3.78369140625,4.82470703125,-0.30029296875
0.023,-2.70263671875,5.06494140625,-1.50146484375
0.0235,-1.62158203125,5.42529296875,-2.90283203125
0.024,-0.62060546875,5.50537109375,-3.98388671875
0.0245,0.18017578125,5.70556640625,-4.94482421875
0.025,1.06103515625,5.42529296875,-5.62548828125
0.0255,2.14208984375,4.42431640625,-5.90576171875
0.026,3.50341796875,3.26318359375,-6.34619140625
0.0265,4.50439453125,2.06201171875,-6.38623046875
0.027,5.10498046875,1.02099609375,-6.26611328125
0.0275,5.42529296875,0.26025390625,-6.14599609375
0.028,5.26513671875,-0.78076171875,-5.30517578125
0.0285,5.06494140625,-1.90185546875,-4.30419921875
0.029,5.06494140625,-3.26318359375,-3.18310546875
0.0295,4.82470703125,-4.34423828125,-2.10205078125
0.03,4.54443359375,-5.22509765625,-1.14111328125
0.0305,4.10400390625,-5.74560546875,-0.34033203125
0.031,3.02294921875,-5.78564453125,0.82080078125
0.0315,1.74169921875,-6.10595703125,2.30224609375
0.032,0.58056640625,-6.26611328125,3.70361328125
0.0325,-0.46044921875,-6.38623046875,4.62451171875
0.033,-1.14111328125,-6.46630859375,5.46533203125
0.0335,-2.14208984375,-5.78564453125,5.90576171875
0.034,-3.34326171875,-4.54443359375,6.14599609375
0.0345,-4.66455078125,-3.34326171875,6.54638671875
0.035,-5.46533203125,-2.10205078125,6.46630859375
0.0355,-5.94580078125,-1.10107421875,6.30615234375
0.036,-6.02587890625,-0.30029296875,5.86572265625
0.0365,-5.74560546875,0.86083984375,4.82470703125
0.037,-5.54541015625,2.18212890625,3.62353515625
0.0375,-5.42529296875,3.46337890625,2.46240234375
0.038,-5.06494140625,4.42431640625,1.34130859375
0.0385,-4.78466796875,5.14501953125,0.50048828125
0.039,-3.94384765625,5.42529296875,-0.54052734375
0.0395,-2.66259765625,5.46533203125,-1.78173828125
0.04,-1.38134765625,5.82568359375,-3.38330078125
0.0405,-0.26025390625,5.78564453125,-4.54443359375
0.041,0.62060546875,5.82568359375,-5.42529296875
0.0415,1.30126953125,5.70556640625,-6.14599609375
0.042,2.54248046875,4.66455078125,-6.42626953125
0.0425,3.86376953125,3.30322265625,-6.70654296875
0.043,4.98486328125,2.02197265625,-6.86669921875
0.0435,5.62548828125,0.82080078125,-6.62646484375
0.044,5.94580078125,-0.14013671875,-6.38623046875
0.0445,5.74560546875,-1.06103515625,-5.62548828125
0.045,5.38525390625,-2.14208984375,-4.46435546875
0.0455,5.26513671875,-3.58349609375,-3.18310546875
0.046,5.02490234375,-4.82470703125,-1.94189453125
0.0465,4.62451171875,-5.62548828125,-0.94091796875
0.047,4.22412109375,-6.22607421875,0.02001953125
0.0475,3.10302734375,-6.30615234375,1.02099609375
0.048,1.74169921875,-6.34619140625,2.42236328125
0.0485,0.46044921875,-6.62646484375,3.90380859375
0.049,-0.70068359375,-6.50634765625,4.98486328125
0.0495,-1.42138671875,-6.58642578125,5.74560546875
0.05,-2.22216796875,-6.10595703125,6.30615234375
0.0505,-3.42333984375,-4.86474609375,6.46630859375
0.051,-4.78466796875,-3.54345703125,6.74658203125
0.0515,-5.70556640625,-2.18212890625,6.70654296875
0.052,-6.18603515625,-1.10107421875,6.42626953125
0.0525,-6.34619140625,-0.30029296875,6.18603515625
0.053,-6.02587890625,0.78076171875,5.18505859375
0.0535,-5.70556640625,1.98193359375,3.94384765625
0.054,-5.62548828125,3.34326171875,2.74267578125
0.0545,-5.18505859375,4.46435546875,1.50146484375
0.055,-4.82470703125,5.18505859375,0.58056640625
0.0555,-4.26416015625,5.62548828125,-0.38037109375
0.056,-3.06298828125,5.66552734375,-1.46142578125
0.0565,-1.70166015625,5.78564453125,-3.06298828125
0.057,-0.50048828125,5.94580078125,-4.34423828125
0.0575,0.54052734375,5.78564453125,-5.30517578125
0.058,1.22119140625,5.90576171875,-6.10595703125
0.0585,2.22216796875,5.14501953125,-6.46630859375
0.059,3.42333984375,3.86376953125,-6.58642578125
0.0595,4.74462890625,2.54248046875,-6.94677734375
0.06,5.46533203125,1.26123046875,-6.74658203125
0.0605,5.90576171875,0.26025390625,-6.54638671875
0.061,5.90576171875,-0.66064453125,-6.06591796875
0.0615,5.62548828125,-1.70166015625,-4.98486328125
0.062,5.38525390625,-3.02294921875,-3.74365234375
0.0625,5.18505859375,-4.34423828125,-2.54248046875
0.063,4.82470703125,-5.26513671875,-1.38134765625
0.0635,4.50439453125,-6.02587890625,-0.50048828125
0.064,3.70361328125,-6.30615234375,0.50048828125
0.0645,2.38232421875,-6.30615234375,1.70166015625
0.065,1.02099609375,-6.62646484375,3.34326171875
0.0655,-0.34033203125,-6.58642578125,4.58447265625
0.066,-1.10107421875,-6.54638671875,5.42529296875
0.0665,-1.78173828125,-6.42626953125,6.10595703125
0.067,-2.94287109375,-5.42529296875,6.42626953125
0.0675,-4.22412109375,-4.06396484375,6.66650390625
0.068,-5.38525390625,-2.82275390625,6.86669921875
0.0685,-6.02587890625,-1.54150390625,6.54638671875
0.069,-6.38623046875,-0.66064453125,6.42626953125
0.0695,-6.18603515625,0.38037109375,5.66552734375
0.07,-5.82568359375,1.42138671875,4.50439453125
0.0705,-5.74560546875,2.86279296875,3.26318359375
0.071,-5.46533203125,4.14404296875,1.98193359375
0.0715,-5.06494140625,4.98486328125,0.90087890625
0.072,-4.62451171875,5.62548828125,0.06005859375
0.0725,-3.58349609375,5.70556640625,-1.14111328125
0.073,-2.22216796875,5.74560546875,-2.50244140625
0.0735,-0.98095703125,6.02587890625,-4.06396484375
0.074,0.34033203125,5.94580078125,-5.14501953125
0.0745,1.02099609375,6.02587890625,-5.94580078125
0.075,1.90185546875,5.54541015625,-6.46630859375
0.0755,3.14306640625,4.34423828125,-6.74658203125
0.076,4.50439453125,2.90283203125,-7.02685546875
0.0765,5.46533203125,1.58154296875,-6.98681640625
0.077,5.94580078125,0.42041015625,-6.66650390625
0.0775,6.10595703125,-0.50048828125,-6.38623046875
0.078,5.78564453125,-1.54150390625,-5.34521484375
0.0785,5.42529296875,-2.74267578125,-4.06396484375
0.079,5.30517578125,-4.14404296875,-2.82275390625
0.0795,4.94482421875,-5.18505859375,-1.58154296875
0.08,4.54443359375,-5.94580078125,-0.62060546875
0.0805,3.90380859375,-6.42626953125,0.34033203125
0.081,2.66259765625,-6.42626953125,1.46142578125
0.0815,1.26123046875,-6.54638671875,2.98291015625
0.082,0.02001953125,-6.58642578125,4.34423828125
0.0825,-1.02099609375,-6.46630859375,5.26513671875
0.083,-1.66162109375,-6.50634765625,6.02587890625
0.0835,-2.62255859375,-5.74560546875,6.38623046875
0.084,-3.78369140625,-4.46435546875,6.46630859375
0.0845,-5.02490234375,-3.18310546875,6.78662109375
0.085,-5.78564453125,-1.90185546875,6.58642578125
0.0855,-6.22607421875,-0.94091796875,6.38623046875
0.086,-6.22607421875,0.02001953125,5.90576171875
0.0865,-5.82568359375,0.98095703125,4.86474609375
0.087,-5.62548828125,2.18212890625,3.70361328125
0.0875,-5.42529296875,3.46337890625,2.54248046875
0.088,-5.02490234375,4.42431640625,1.34130859375
0.0885,-4.74462890625,5.10498046875,0.50048828125
0.089,-3.98388671875,5.38525390625,-0.50048828125
0.0895,-2.86279296875,5.42529296875,-1.54150390625
0.09,-1.58154296875,5.74560546875,-3.06298828125
0.0905,-0.42041015625,5.74560546875,-4.26416015625
0.091,0.50048828125,5.74560546875,-5.14501953125
0.0915,1.14111328125,5.78564453125,-5.90576171875
0.092,2.18212890625,4.94482421875,-6.22607421875
0.0925,3.38330078125,3.70361328125,-6.42626953125
0.093,4.54443359375,2.54248046875,-6.70654296875
0.0935,5.22509765625,1.30126953125,-6.50634765625
0.094,5.66552734375,0.42041015625,-6.42626953125
0.0945,5.58544921875,-0.50048828125,-5.78564453125
0.095,5.34521484375,-1.50146484375,-4.86474609375
0.0955,5.18505859375,-2.82275390625,-3.70361328125
0.096,5.06494140625,-4.02392578125,-2.58251953125
0.0965,4.70458984375,-4.98486328125,-1.50146484375
0.097,4.46435546875,-5.70556640625,-0.70068359375
0.0975,3.50341796875,-5.90576171875,0.34033203125
0.098,2.38232421875,-6.02587890625,1.58154296875
0.0985,1.18115234375,-6.34619140625,3.06298828125
0.099,0.06005859375,-6.34619140625,4.14404296875
0.0995,-0.78076171875,-6.42626953125,5.06494140625
0.1,-1.54150390625,-6.26611328125,5.66552734375
0.1005,-2.58251953125,-5.26513671875,5.98583984375
0.101,-3.90380859375,-4.06396484375,6.34619140625
0.1015,-4.90478515625,-2.86279296875,6.42626953125
0.102,-5.54541015625,-1.74169921875,6.26611328125
0.1025,-5.82568359375,-0.98095703125,6.14599609375
0.103,-5.70556640625,0.02001953125,5.34521484375
0.1035,-5.42529296875,1.02099609375,4.38427734375
0.104,-5.42529296875,2.38232421875,3.30322265625
0.1045,-5.14501953125,3.42333984375,2.22216796875
0.105,-4.86474609375,4.30419921875,1.26123046875
0.1055,-4.50439453125,4.86474609375,0.42041015625
0.106,-3.54345703125,5.06494140625,-0.62060546875
0.1065,-2.38232421875,5.30517578125,-1.98193359375
0.107,-1.30126953125,5.54541015625,-3.26318359375
0.1075,-0.30029296875,5.54541015625,-4.26416015625
0.108,0.42041015625,5.74560546875,-5.14501953125
0.1085,1.30126953125,5.26513671875,-5.66552734375
0.109,2.38232421875,4.22412109375,-5.90576171875
0.1095,3.66357421875,3.14306640625,-6.34619140625
0.11,4.50439453125,1.98193359375,-6.34619140625
0.1105,5.10498046875,0.98095703125,-6.18603515625
0.111,5.26513671875,0.26025390625,-5.94580078125
0.1115,5.10498046875,-0.74072265625,-5.14501953125
0.112,4.94482421875,-1.86181640625,-4.22412109375
0.1125,4.90478515625,-3.06298828125,-3.22314453125
0.113,4.62451171875,-4.10400390625,-2.18212890625
0.1135,4.46435546875,-4.98486328125,-1.38134765625
0.114,3.94384765625,-5.38525390625,-0.50048828125
0.1145,2.98291015625,-5.50537109375,0.58056640625
0.115,1.94189453125,-5.90576171875,1.94189453125
0.1155,0.78076171875,-6.02587890625,3.18310546875
0.116,0.02001953125,-6.10595703125,4.10400390625
0.1165,-0.78076171875,-6.30615234375,4.98486328125
0.117,-1.70166015625,-5.62548828125,5.38525390625
0.1175,-2.82275390625,-4.66455078125,5.70556640625
0.118,-3.98388671875,-3.58349609375,6.06591796875
0.1185,-4.74462890625,-2.50244140625,6.02587890625
0.119,-5.30517578125,-1.66162109375,6.02587890625
0.1195,-5.38525390625,-0.90087890625,5.62548828125
0.12,-5.22509765625,0.06005859375,4.86474609375
0.1205,-5.22509765625,1.18115234375,3.98388671875
0.121,-5.14501953125,2.38232421875,2.94287109375
0.1215,-4.94482421875,3.34326171875,1.94189453125
0.122,-4.78466796875,4.18408203125,1.22119140625
0.1225,-4.06396484375,4.54443359375,0.34033203125
0.123,-3.14306640625,4.78466796875,-0.82080078125
0.1235,-2.18212890625,5.22509765625,-2.18212890625
0.124,-1.14111328125,5.30517578125,-3.26318359375
0.1245,-0.46044921875,5.58544921875,-4.22412109375
0.125,0.42041015625,5.50537109375,-4.94482421875
0.1255,1.42138671875,4.78466796875,-5.34521484375
0.126,2.66259765625,3.78369140625,-5.78564453125
0.1265,3.70361328125,2.70263671875,-6.02587890625
0.127,4.42431640625,1.66162109375,-6.02587890625
0.1275,4.86474609375,0.98095703125,-6.02587890625
0.128,4.82470703125,0.14013671875,-5.42529296875
0.1285,4.74462890625,-0.90087890625,-4.74462890625
0.129,4.82470703125,-2.10205078125,-3.86376953125
0.1295,4.62451171875,-3.22314453125,-2.90283203125
0.13,4.50439453125,-4.10400390625,-1.94189453125
0.1305,4.30419921875,-4.82470703125,-1.26123046875
0.131,3.50341796875,-5.06494140625,-0.30029296875
0.1315,2.58251953125,-5.42529296875,0.94091796875
0.132,1.58154296875,-5.74560546875,2.22216796875
0.1325,0.70068359375,-5.86572265625,3.18310546875
0.133,0.02001953125,-6.14599609375,4.18408203125
0.1335,-0.90087890625,-5.90576171875,4.78466796875
0.134,-1.90185546875,-5.10498046875,5.10498046875
0.1345,-3.10302734375,-4.22412109375,5.66552734375
0.135,-4.02392578125,-3.18310546875,5.78564453125
0.1355,-4.74462890625,-2.22216796875,5.82568359375
0.136,-5.06494140625,-1.58154296875,5.74560546875
0.1365,-5.02490234375,-0.74072265625,5.10498046875
0.137,-5.02490234375,0.30029296875,4.42431640625
0.1375,-5.10498046875,1.46142578125,3.58349609375
0.138,-4.90478515625,2.54248046875,2.62255859375
0.1385,-4.82470703125,3.50341796875,1.86181640625
0.139,-4.42431640625,4.06396484375,1.06103515625
0.1395,-3.66357421875,4.34423828125,0.14013671875
0.14,-2.82275390625,4.82470703125,-1.26123046875
0.1405,-1.82177734375,5.10498046875,-2.42236328125
0.141,-1.06103515625,5.38525390625,-3.46337890625
0.1415,-0.34033203125,5.58544921875,-4.38427734375
0.142,0.70068359375,5.10498046875,-4.94482421875
0.1425,1.86181640625,4.22412109375,-5.38525390625
0.143,3.02294921875,3.34326171875,-5.78564453125
0.1435,3.86376953125,2.26220703125,-5.90576171875
0.144,4.50439453125,1.42138671875,-5.94580078125
0.1445,4.70458984375,0.62060546875,-5.70556640625
0.145,4.62451171875,-0.30029296875,-5.06494140625
0.1455,4.70458984375,-1.46142578125,-4.30419921875
0.146,4.74462890625,-2.58251953125,-3.34326171875
0.1465,4.54443359375,-3.54345703125,-2.42236328125
0.147,4.50439453125,-4.46435546875,-1.66162109375
0.1475,3.86376953125,-4.86474609375,-0.78076171875
0.148,2.98291015625,-5.14501953125,0.38037109375
0.1485,2.06201171875,-5.62548828125,1.66162109375
0.149,1.06103515625,-5.78564453125,2.86279296875
0.1495,0.34033203125,-6.10595703125,3.82373046875
0.15,-0.50048828125,-6.10595703125,4.62451171875
0.1505,-1.54150390625,-5.42529296875,5.06494140625
0.151,-2.74267578125,-4.50439453125,5.54541015625
0.1515,-3.82373046875,-3.46337890625,5.78564453125
0.152,-4.58447265625,-2.42236328125,5.74560546875
0.1525,-5.10498046875,-1.74169921875,5.82568359375
0.153,-5.10498046875,-0.90087890625,5.30517578125
0.1535,-4.98486328125,0.10009765625,4.54443359375
0.154,-5.10498046875,1.34130859375,3.74365234375
0.1545,-4.98486328125,2.54248046875,2.70263671875
0.155,-4.82470703125,3.46337890625,1.86181640625
0.1555,-4.58447265625,4.14404296875,1.06103515625
0.156,-3.82373046875,4.46435546875,0.14013671875
0.1565,-2.86279296875,4.82470703125,-1.18115234375
0.157,-1.90185546875,5.18505859375,-2.46240234375
0.1575,-0.98095703125,5.30517578125,-3.50341796875
0.158,-0.34033203125,5.62548828125,-4.46435546875
0.1585,0.70068359375,5.22509765625,-5.06494140625
0.159,1.74169921875,4.38427734375,-5.42529296875
0.1595,3.02294921875,3.38330078125,-5.94580078125
0.16,3.98388671875,2.26220703125,-6.02587890625
0.1605,4.62451171875,1.30126953125,-6.02587890625
0.161,4.90478515625,0.54052734375,-5.86572265625
0.1615,4.82470703125,-0.46044921875,-5.18505859375
0.162,4.78466796875,-1.46142578125,-4.30419921875
0.1625,4.82470703125,-2.70263671875,-3.34326171875
0.163,4.62451171875,-3.70361328125,-2.38232421875
0.1635,4.50439453125,-4.62451171875,-1.58154296875
0.164,3.98388671875,-5.14501953125,-0.70068359375
0.1645,3.06298828125,-5.26513671875,0.34033203125
0.165,2.06201171875,-5.70556640625,1.74169921875
0.1655,0.98095703125,-5.90576171875,2.98291015625
0.166,0.18017578125,-6.10595703125,3.94384765625
0.1665,-0.62060546875,-6.26611328125,4.82470703125
0.167,-1.58154296875,-5.62548828125,5.26513671875
0.1675,-2.78271484375,-4.54443359375,5.62548828125
0.168,-3.98388671875,-3.54345703125,5.98583984375
0.1685,-4.74462890625,-2.42236328125,5.94580078125
0.169,-5.30517578125,-1.62158203125,5.94580078125
0.1695,-5.42529296875,-0.86083984375,5.50537109375
0.17,-5.18505859375,0.22021484375,4.74462890625
0.1705,-5.22509765625,1.42138671875,3.82373046875
0.171,-5.14501953125,2.66259765625,2.78271484375
0.1715,-4.90478515625,3.58349609375,1.78173828125
0.172,-4.74462890625,4.42431640625,1.02099609375
0.1725,-3.98388671875,4.66455078125,0.14013671875
0.173,-2.94287109375,4.90478515625,-1.14111328125
0.1735,-1.94189453125,5.34521484375,-2.54248046875
0.174,-0.90087890625,5.42529296875,-3.70361328125
0.1745,-0.14013671875,5.62548828125,-4.62451171875
0.175,0.74072265625,5.50537109375,-5.30517578125
0.1755,1.86181640625,4.62451171875,-5.74560546875
0.176,3.18310546875,3.50341796875,-6.10595703125
0.1765,4.22412109375,2.30224609375,-6.34619140625
0.177,4.90478515625,1.26123046875,-6.22607421875
0.1775,5.26513671875,0.42041015625,-6.18603515625
0.178,5.18505859375,-0.54052734375,-5.42529296875
0.1785,4.98486328125,-1.58154296875,-4.46435546875
0.179,5.02490234375,-2.94287109375,-3.42333984375
0.1795,4.82470703125,-4.10400390625,-2.30224609375
0.18,4.54443359375,-4.98486328125,-1.34130859375
0.1805,4.22412109375,-5.58544921875,-0.58056640625
0.181,3.18310546875,-5.74560546875,0.58056640625
0.1815,1.94189453125,-5.98583984375,1.98193359375
0.182,0.78076171875,-6.26611328125,3.42333984375
0.1825,-0.26025390625,-6.26611328125,4.42431640625
0.183,-0.94091796875,-6.42626953125,5.30517578125
0.1835,-1.90185546875,-5.86572265625,5.82568359375
0.184,-3.10302734375,-4.66455078125,6.06591796875
0.1845,-4.46435546875,-3.54345703125,6.46630859375
0.185,-5.34521484375,-2.26220703125,6.42626953125
0.1855,-5.86572265625,-1.26123046875,6.26611328125
0.186,-5.94580078125,-0.46044921875,5.90576171875
0.1865,-5.74560546875,0.70068359375,4.90478515625
0.187,-5.54541015625,1.98193359375,3.70361328125
0.1875,-5.42529296875,3.30322265625,2.58251953125
0.188,-5.10498046875,4.30419921875,1.46142578125
0.1885,-4.78466796875,5.06494140625,0.58056640625
0.189,-4.06396484375,5.42529296875,-0.46044921875
0.1895,-2.82275390625,5.42529296875,-1.62158203125
0.19,-1.46142578125,5.78564453125,-3.26318359375
0.1905,-0.34033203125,5.82568359375,-4.50439453125
0.191,0.54052734375,5.82568359375,-5.30517578125
0.1915,1.26123046875,5.78564453125,-6.06591796875
0.192,2.46240234375,4.74462890625,-6.42626953125
0.1925,3.78369140625,3.34326171875,-6.66650390625
0.193,4.94482421875,2.06201171875,-6.86669921875
0.1935,5.50537109375,0.90087890625,-6.66650390625
0.194,5.90576171875,0.02001953125,-6.38623046875
0.1945,5.74560546875,-0.98095703125,-5.74560546875
0.195,5.42529296875,-2.14208984375,-4.54443359375
0.1955,5.26513671875,-3.54345703125,-3.22314453125
0.196,5.06494140625,-4.74462890625,-2.02197265625
0.1965,4.62451171875,-5.54541015625,-0.98095703125
0.197,4.26416015625,-6.18603515625,-0.18017578125
0.1975,3.22314453125,-6.26611328125,0.98095703125
0.198,1.86181640625,-6.30615234375,2.26220703125
0.1985,0.54052734375,-6.54638671875,3.86376953125
0.199,-0.62060546875,-6.46630859375,4.90478515625
