wavelength,x,y,z
0.0,-16.966552734375,22.151611328125,-5.755615234375
0.0005,-19.408935546875,20.990478515625,-2.192138671875
0.001,-21.611083984375,18.668212890625,2.412353515625
0.0015,-23.893310546875,15.945556640625,7.417236328125
0.002,-23.012451171875,11.461181640625,11.220947265625
0.0025,-23.492919921875,8.458251953125,14.744384765625
0.003,-22.131591796875,4.854736328125,17.026611328125
0.0035,-20.489990234375,0.130126953125,20.149658203125
0.004,-18.247802734375,-4.314208984375,22.271728515625
0.0045,-14.724365234375,-9.479248046875,23.833251953125
0.005,-11.040771484375,-12.762451171875,23.432861328125
0.0055,-6.716552734375,-16.285888671875,22.632080078125
0.006,-2.992919921875,-18.287841796875,20.990478515625
0.0065,2.172119140625,-21.010498046875,18.668212890625
0.007,7.177001953125,-23.092529296875,15.865478515625
0.0075,11.661376953125,-22.812255859375,11.220947265625
0.008,14.944580078125,-23.372802734375,8.538330078125
0.0085,17.987548828125,-22.051513671875,4.174072265625
0.009,20.550048828125,-20.489990234375,0.090087890625
0.0095,22.471923828125,-18.207763671875,-4.314208984375
0.01,24.273681640625,-14.804443359375,-9.399169921875
0.0105,23.352783203125,-10.560302734375,-12.842529296875
0.011,23.432861328125,-7.317138671875,-16.285888671875
0.0115,21.751220703125,-3.473388671875,-18.447998046875
0.012,19.989501953125,1.451416015625,-21.571044921875
0.0125,17.306884765625,6.095947265625,-23.532958984375
0.013,13.182861328125,10.980712890625,-24.293701171875
0.0135,9.859619140625,14.103759765625,-24.053466796875
0.014,5.255126953125,17.427001953125,-22.732177734375
0.0145,1.010986328125,19.509033203125,-20.690185546875
0.015,-3.873779296875,22.071533203125,-18.488037109375
0.0155,-9.279052734375,23.833251953125,-14.924560546875
0.016,-13.322998046875,23.152587890625,-10.280029296875
0.0165,-16.566162109375,23.593017578125,-7.637451171875
0.017,-19.368896484375,21.711181640625,-2.952880859375
0.0175,-22.011474609375,19.909423828125,1.531494140625
0.018,-23.492919921875,17.226806640625,5.815673828125
0.0185,-24.734130859375,13.423095703125,10.900634765625
0.019,-23.813232421875,9.299072265625,14.143798828125
0.0195,-23.572998046875,5.695556640625,17.627197265625
0.02,-21.370849609375,1.451416015625,19.709228515625
0.0205,-19.689208984375,-3.513427734375,22.912353515625
0.021,-16.365966796875,-8.318115234375,24.353759765625
0.0215,-11.881591796875,-12.922607421875,24.433837890625
0.022,-8.718505859375,-15.885498046875,24.273681640625
0.0225,-3.273193359375,-19.168701171875,22.111572265625
0.023,1.291259765625,-21.250732421875,19.789306640625
0.0235,6.135986328125,-23.572998046875,17.306884765625
0.024,11.381103515625,-24.654052734375,13.302978515625
0.0245,15.144775390625,-23.773193359375,8.698486328125
0.025,18.347900390625,-23.933349609375,5.735595703125
0.0255,21.030517578125,-21.611083984375,0.690673828125
0.026,23.793212890625,-19.489013671875,-4.194091796875
0.0265,24.593994140625,-16.005615234375,-8.518310546875
0.027,25.394775390625,-12.201904296875,-13.242919921875
0.0275,24.313720703125,-8.197998046875,-16.205810546875
0.028,23.432861328125,-3.913818359375,-19.649169921875
0.0285,20.830322265625,0.650634765625,-21.651123046875
0.029,18.948486328125,5.815673828125,-24.854248046875
0.0295,14.784423828125,10.540283203125,-25.374755859375
0.03,10.179931640625,14.784423828125,-25.014404296875
0.0305,7.136962890625,17.467041015625,-24.694091796875
0.031,1.251220703125,20.630126953125,-21.971435546875
0.0315,-3.513427734375,22.752197265625,-19.529052734375
0.032,-8.558349609375,24.553955078125,-16.365966796875
0.0325,-13.363037109375,25.154541015625,-12.322021484375
0.033,-16.846435546875,23.913330078125,-7.677490234375
0.0335,-19.889404296875,23.552978515625,-4.314208984375
0.034,-22.251708984375,20.950439453125,0.770751953125
0.0345,-25.054443359375,18.708251953125,5.855712890625
0.035,-24.934326171875,14.424072265625,10.099853515625
0.0355,-25.534912109375,10.700439453125,14.504150390625
0.036,-24.373779296875,6.896728515625,17.186767578125
0.0365,-22.932373046875,2.212158203125,20.510009765625
0.037,-20.289794921875,-2.472412109375,22.471923828125
0.0375,-18.087646484375,-7.637451171875,25.354736328125
0.038,-13.643310546875,-12.041748046875,25.394775390625
0.0385,-8.998779296875,-15.965576171875,24.593994140625
0.039,-5.795654296875,-18.407958984375,23.873291015625
0.0395,0.250244140625,-21.370849609375,20.910400390625
0.04,5.094970703125,-23.693115234375,18.548095703125
0.0405,10.219970703125,-24.654052734375,14.384033203125
0.041,14.303955078125,-25.294677734375,11.020751953125
0.0415,17.707275390625,-23.973388671875,6.336181640625
0.042,20.630126953125,-23.052490234375,2.652587890625
0.0425,22.872314453125,-20.369873046875,-2.392333984375
0.043,25.675048828125,-17.967529296875,-7.637451171875
0.0435,24.994384765625,-13.403076171875,-11.641357421875
0.044,25.354736328125,-9.679443359375,-15.765380859375
0.0445,24.193603515625,-6.196044921875,-18.127685546875
0.045,22.271728515625,-0.990966796875,-21.490966796875
0.0455,19.709228515625,3.773681640625,-23.653076171875
0.046,16.706298828125,9.138916015625,-25.935302734375
0.0465,12.462158203125,13.182861328125,-25.735107421875
0.047,7.817626953125,16.946533203125,-24.814208984375
0.0475,4.334228515625,19.228759765625,-23.613037109375
0.048,-1.631591796875,22.071533203125,-20.650146484375
0.0485,-6.756591796875,24.634033203125,-18.207763671875
0.049,-11.841552734375,24.634033203125,-13.162841796875
0.0495,-15.605224609375,25.234619140625,-10.239990234375
0.05,-18.768310546875,23.753173828125,-5.635498046875
0.0505,-21.611083984375,22.431884765625,-1.391357421875
0.051,-23.733154296875,19.589111328125,3.573486328125
0.0515,-26.175537109375,16.706298828125,9.018798828125
0.052,-25.254638671875,11.901611328125,12.942626953125
0.0525,-25.374755859375,8.298095703125,16.786376953125
0.053,-23.973388671875,4.654541015625,19.028564453125
0.0535,-21.811279296875,-0.910888671875,22.431884765625
0.054,-19.208740234375,-5.715576171875,24.634033203125
0.0545,-15.324951171875,-11.120849609375,26.115478515625
0.055,-11.441162109375,-14.684326171875,25.755126953125
0.0555,-6.516357421875,-18.287841796875,24.473876953125
0.056,-2.312255859375,-20.530029296875,22.552001953125
0.0565,3.413330078125,-23.372802734375,19.749267578125
0.057,8.978759765625,-25.815185546875,16.786376953125
0.0575,13.623291015625,-25.174560546875,11.541259765625
0.058,17.226806640625,-25.614990234375,8.578369140625
0.0585,20.349853515625,-23.853271484375,3.733642578125
0.059,23.272705078125,-21.971435546875,-1.151123046875
0.0595,25.154541015625,-19.088623046875,-5.955810546875
0.06,27.036376953125,-15.565185546875,-11.481201171875
0.0605,25.835205078125,-10.760498046875,-15.124755859375
0.061,25.675048828125,-6.996826171875,-18.808349609375
0.0615,23.593017578125,-2.752685546875,-21.010498046875
0.062,21.390869140625,2.892822265625,-24.373779296875
0.0625,18.227783203125,7.977783203125,-26.335693359375
0.063,13.583251953125,13.343017578125,-26.936279296875
0.0635,9.979736328125,16.506103515625,-26.535888671875
0.064,4.534423828125,20.109619140625,-24.734130859375
0.0645,-0.190185546875,22.231689453125,-22.291748046875
0.065,-5.595458984375,24.754150390625,-19.529052734375
0.0655,-11.521240234375,26.635986328125,-15.685302734375
0.066,-15.765380859375,25.594970703125,-10.400146484375
0.0665,-19.128662109375,25.755126953125,-7.277099609375
0.067,-22.091552734375,23.512939453125,-2.072021484375
0.0675,-24.854248046875,21.270751953125,3.052978515625
0.068,-26.215576171875,17.987548828125,7.737548828125
0.0685,-27.496826171875,13.903564453125,13.182861328125
0.069,-26.135498046875,9.259033203125,16.586181640625
0.0695,-25.574951171875,5.215087890625,20.149658203125
0.07,-22.932373046875,0.610595703125,22.151611328125
0.0705,-20.810302734375,-4.874755859375,25.434814453125
0.071,-17.126708984375,-10.079833984375,26.876220703125
0.0715,-12.121826171875,-14.964599609375,26.716064453125
0.072,-8.798583984375,-17.847412109375,26.275634765625
0.0725,-2.832763671875,-21.290771484375,23.753173828125
0.073,2.092041015625,-23.372802734375,21.070556640625
0.0735,7.337158203125,-25.655029296875,18.187744140625
0.074,13.022705078125,-26.776123046875,13.823486328125
0.0745,16.906494140625,-25.574951171875,8.818603515625
0.075,20.069580078125,-25.454833984375,5.615478515625
0.0755,22.792236328125,-22.852294921875,0.290283203125
0.076,25.635009765625,-20.489990234375,-4.994873046875
0.0765,26.435791015625,-16.846435546875,-9.479248046875
0.077,27.196533203125,-12.602294921875,-14.604248046875
0.0775,25.955322265625,-8.518310546875,-17.567138671875
0.078,24.834228515625,-3.913818359375,-21.090576171875
0.0785,22.071533203125,0.770751953125,-22.932373046875
0.079,19.909423828125,6.135986328125,-26.175537109375
0.0795,15.625244140625,11.260986328125,-26.976318359375
0.08,10.700439453125,15.665283203125,-26.415771484375
0.0805,7.537353515625,18.387939453125,-26.015380859375
0.081,1.451416015625,21.551025390625,-23.132568359375
0.0815,-3.513427734375,23.753173828125,-20.570068359375
0.082,-8.678466796875,25.554931640625,-17.286865234375
0.0825,-13.963623046875,26.475830078125,-13.002685546875
0.083,-17.487060546875,25.114501953125,-8.197998046875
0.0835,-20.570068359375,24.714111328125,-4.794677734375
0.084,-23.012451171875,21.911376953125,0.530517578125
0.0845,-25.975341796875,19.669189453125,5.815673828125
0.085,-26.135498046875,15.385009765625,10.219970703125
0.0855,-26.696044921875,11.220947265625,15.104736328125
0.086,-25.614990234375,7.577392578125,17.787353515625
0.0865,-24.053466796875,2.572509765625,21.230712890625
0.087,-21.330810546875,-2.192138671875,23.272705078125
0.0875,-19.048583984375,-7.557373046875,26.315673828125
0.088,-14.564208984375,-12.402099609375,26.635986328125
0.0885,-9.639404296875,-16.526123046875,25.795166015625
0.089,-6.396240234375,-19.128662109375,25.114501953125
0.0895,0.010009765625,-22.251708984375,21.951416015625
0.09,5.094970703125,-24.654052734375,19.509033203125
0.0905,10.420166015625,-25.735107421875,15.264892578125
0.091,14.984619140625,-26.495849609375,11.621337890625
0.0915,18.508056640625,-25.094482421875,6.776611328125
0.092,21.591064453125,-24.253662109375,2.892822265625
0.0925,23.993408203125,-21.290771484375,-2.552490234375
0.093,26.996337890625,-18.888427734375,-8.077880859375
0.0935,26.395751953125,-14.043701171875,-12.362060546875
0.094,26.836181640625,-10.119873046875,-16.806396484375
0.0945,25.474853515625,-6.396240234375,-19.248779296875
0.095,23.432861328125,-0.870849609375,-22.772216796875
0.0955,20.550048828125,4.214111328125,-24.894287109375
0.096,17.427001953125,9.899658203125,-27.456787109375
0.0965,12.902587890625,14.223876953125,-27.216552734375
0.097,7.977783203125,18.107666015625,-26.175537109375
0.0975,4.334228515625,20.429931640625,-24.854248046875
0.098,-2.112060546875,23.512939453125,-21.611083984375
0.0985,-7.557373046875,26.075439453125,-18.928466796875
0.099,-12.922607421875,26.155517578125,-13.643310546875
0.0995,-16.846435546875,26.716064453125,-10.440185546875
0.1,-20.129638671875,24.994384765625,-5.515380859375
0.1005,-23.052490234375,23.512939453125,-1.111083984375
0.101,-25.254638671875,20.429931640625,4.294189453125
0.1015,-27.857177734375,17.427001953125,9.979736328125
0.102,-26.696044921875,12.181884765625,14.103759765625
0.1025,-26.816162109375,8.418212890625,18.107666015625
0.103,-25.134521484375,4.494384765625,20.349853515625
0.1035,-22.772216796875,-1.311279296875,23.833251953125
0.104,-19.849365234375,-6.396240234375,25.915283203125
0.1045,-15.885498046875,-12.121826171875,27.556884765625
0.105,-11.641357421875,-15.765380859375,27.036376953125
0.1055,-6.596435546875,-19.489013671875,25.635009765625
0.106,-2.272216796875,-21.611083984375,23.593017578125
0.1065,3.773681640625,-24.373779296875,20.510009765625
0.107,9.539306640625,-26.816162109375,17.306884765625
0.1075,14.424072265625,-26.215576171875,11.821533203125
0.108,18.067626953125,-26.575927734375,8.738525390625
0.1085,21.110595703125,-24.694091796875,3.853759765625
0.109,23.993408203125,-22.732177734375,-1.071044921875
0.1095,25.915283203125,-19.609130859375,-6.196044921875
0.11,27.917236328125,-16.005615234375,-11.841552734375
0.1105,26.595947265625,-11.080810546875,-15.605224609375
0.111,26.395751953125,-7.317138671875,-19.208740234375
0.1115,24.313720703125,-3.193115234375,-21.290771484375
0.112,21.951416015625,2.532470703125,-24.614013671875
0.1125,18.748291015625,7.817626953125,-26.736083984375
0.113,14.023681640625,13.182861328125,-27.336669921875
0.1135,10.380126953125,16.506103515625,-27.016357421875
0.114,5.175048828125,19.989501953125,-25.174560546875
0.1145,0.610595703125,22.071533203125,-22.812255859375
0.115,-4.954833984375,24.634033203125,-19.969482421875
0.1155,-10.960693359375,26.716064453125,-16.125732421875
0.116,-15.284912109375,25.675048828125,-10.880615234375
0.1165,-18.648193359375,25.915283203125,-7.877685546875
0.117,-21.410888671875,23.833251953125,-3.072998046875
0.1175,-24.213623046875,21.711181640625,2.011962890625
0.118,-25.895263671875,18.508056640625,6.896728515625
0.1185,-27.216552734375,14.384033203125,12.422119140625
0.119,-26.135498046875,9.979736328125,15.825439453125
0.1195,-25.614990234375,6.055908203125,19.268798828125
0.12,-23.332763671875,1.811767578125,21.270751953125
0.1205,-21.130615234375,-3.713623046875,24.553955078125
0.121,-17.647216796875,-9.038818359375,26.435791015625
0.1215,-12.722412109375,-13.963623046875,26.235595703125
0.122,-9.599365234375,-16.926513671875,26.195556640625
0.1225,-4.033935546875,-20.129638671875,23.833251953125
0.123,0.890869140625,-22.371826171875,21.350830078125
0.1235,6.055908203125,-24.694091796875,18.628173828125
0.124,11.941650390625,-26.295654296875,14.384033203125
0.1245,15.665283203125,-25.174560546875,9.619384765625
0.125,19.108642578125,-25.294677734375,6.416259765625
0.1255,21.631103515625,-22.972412109375,1.571533203125
0.126,24.634033203125,-20.810302734375,-3.713623046875
0.1265,25.755126953125,-17.326904296875,-8.318115234375
0.127,26.595947265625,-13.122802734375,-13.483154296875
0.1275,25.675048828125,-9.279052734375,-16.526123046875
0.128,24.674072265625,-4.794677734375,-20.009521484375
0.1285,22.151611328125,-0.470458984375,-21.971435546875
0.129,20.069580078125,4.974853515625,-25.214599609375
0.1295,16.145751953125,10.260009765625,-26.615966796875
0.13,11.100830078125,14.744384765625,-25.935302734375
0.1305,8.258056640625,17.627197265625,-25.935302734375
0.131,2.412353515625,20.630126953125,-23.092529296875
0.1315,-2.552490234375,23.032470703125,-20.690185546875
0.132,-7.597412109375,24.834228515625,-17.607177734375
0.1325,-13.202880859375,25.995361328125,-13.282958984375
0.133,-16.606201171875,24.754150390625,-8.718505859375
0.1335,-19.889404296875,24.513916015625,-5.275146484375
0.134,-22.131591796875,21.991455078125,-0.470458984375
0.1345,-25.174560546875,19.749267578125,4.934814453125
0.135,-25.614990234375,15.665283203125,9.499267578125
0.1355,-26.215576171875,11.461181640625,14.384033203125
0.136,-25.334716796875,8.017822265625,17.106689453125
0.1365,-23.853271484375,3.133056640625,20.469970703125
0.137,-21.330810546875,-1.471435546875,22.552001953125
0.1375,-19.088623046875,-6.796630859375,25.474853515625
0.138,-14.844482421875,-11.761474609375,26.315673828125
0.1385,-9.839599609375,-15.805419921875,25.274658203125
0.139,-6.836669921875,-18.447998046875,24.954345703125
0.1395,-0.750732421875,-21.330810546875,21.791259765625
0.14,4.334228515625,-23.893310546875,19.468994140625
0.1405,9.459228515625,-24.974365234375,15.505126953125
0.141,14.343994140625,-25.935302734375,11.661376953125
0.1415,17.547119140625,-24.614013671875,7.297119140625
0.142,20.750244140625,-23.893310546875,3.333251953125
0.1425,22.952392578125,-21.130615234375,-1.671630859375
0.143,25.915283203125,-18.808349609375,-7.036865234375
0.1435,25.635009765625,-14.243896484375,-11.401123046875
0.144,25.915283203125,-10.199951171875,-15.845458984375
0.1445,25.034423828125,-7.076904296875,-18.247802734375
0.145,22.992431640625,-1.671630859375,-21.490966796875
0.1455,20.469970703125,3.093017578125,-23.733154296875
0.146,17.427001953125,8.538330078125,-26.055419921875
0.1465,13.302978515625,13.102783203125,-26.455810546875
0.147,8.338134765625,16.826416015625,-25.254638671875
0.1475,5.094970703125,19.228759765625,-24.413818359375
0.148,-0.950927734375,21.951416015625,-21.210693359375
0.1485,-6.115966796875,24.674072265625,-18.928466796875
0.149,-11.281005859375,24.914306640625,-14.043701171875
0.1495,-15.525146484375,25.594970703125,-10.640380859375
0.15,-18.447998046875,24.313720703125,-6.476318359375
0.1505,-21.490966796875,22.992431640625,-2.072021484375
0.151,-23.532958984375,20.149658203125,2.852783203125
0.1515,-26.135498046875,17.427001953125,8.258056640625
0.152,-25.494873046875,12.702392578125,12.422119140625
0.1525,-25.494873046875,8.698486328125,16.466064453125
0.153,-24.493896484375,5.615478515625,18.588134765625
0.1535,-22.131591796875,0.050048828125,21.791259765625
0.154,-19.729248046875,-4.794677734375,24.273681640625
0.1545,-15.965576171875,-10.079833984375,25.715087890625
0.155,-12.201904296875,-14.083740234375,25.955322265625
0.1555,-7.357177734375,-17.487060546875,24.473876953125
0.156,-3.393310546875,-19.889404296875,22.992431640625
0.1565,2.212158203125,-22.371826171875,19.989501953125
0.157,7.777587890625,-25.214599609375,17.386962890625
0.1575,12.422119140625,-24.654052734375,12.221923828125
0.158,16.305908203125,-25.254638671875,9.098876953125
0.1585,18.988525390625,-23.853271484375,5.135009765625
0.159,22.071533203125,-22.131591796875,0.290283203125
0.1595,24.073486328125,-19.328857421875,-4.634521484375
0.16,26.075439453125,-16.045654296875,-9.959716796875
0.1605,25.394775390625,-11.721435546875,-13.763427734375
0.161,25.034423828125,-7.717529296875,-17.447021484375
0.1615,23.673095703125,-4.354248046875,-19.529052734375
0.162,21.310791015625,1.291259765625,-22.692138671875
0.1625,18.748291015625,6.416259765625,-25.294677734375
0.163,14.143798828125,11.461181640625,-25.655029296875
0.1635,10.860595703125,15.064697265625,-25.975341796875
0.164,6.015869140625,18.147705078125,-24.253662109375
0.1645,1.571533203125,20.630126953125,-22.291748046875
0.165,-3.593505859375,22.912353515625,-19.529052734375
0.1655,-9.559326171875,25.394775390625,-16.285888671875
0.166,-13.643310546875,24.393798828125,-11.281005859375
0.1665,-17.286865234375,24.794189453125,-8.077880859375
0.167,-19.689208984375,23.152587890625,-4.033935546875
0.1675,-22.652099609375,21.150634765625,0.970947265625
0.168,-24.493896484375,18.227783203125,5.815673828125
0.1685,-25.655029296875,14.263916015625,11.020751953125
0.169,-25.214599609375,10.380126953125,14.504150390625
0.1695,-24.453857421875,6.256103515625,17.907470703125
0.17,-22.732177734375,2.572509765625,19.909423828125
0.1705,-20.489990234375,-2.712646484375,22.912353515625
0.171,-17.607177734375,-8.037841796875,25.354736328125
0.1715,-12.642333984375,-12.602294921875,24.914306640625
0.172,-9.759521484375,-15.845458984375,25.234619140625
0.1725,-4.674560546875,-18.608154296875,22.992431640625
0.173,0.170166015625,-21.170654296875,20.830322265625
0.1735,4.934814453125,-23.212646484375,18.147705078125
0.174,10.820556640625,-25.054443359375,14.223876953125
0.1745,14.263916015625,-24.053466796875,9.899658203125
0.175,17.907470703125,-24.173583984375,6.416259765625
0.1755,19.989501953125,-22.251708984375,2.492431640625
0.176,22.952392578125,-20.209716796875,-2.632568359375
0.1765,24.473876953125,-17.126708984375,-7.397216796875
0.177,24.954345703125,-12.882568359375,-12.121826171875
0.1775,24.794189453125,-9.679443359375,-15.244873046875
0.178,23.432861328125,-5.275146484375,-18.327880859375
0.1785,21.591064453125,-1.311279296875,-20.369873046875
0.179,19.428955078125,3.653564453125,-23.172607421875
0.1795,16.065673828125,9.098876953125,-25.294677734375
0.18,11.180908203125,13.102783203125,-24.333740234375
0.1805,8.418212890625,16.185791015625,-24.694091796875
