wavelength,x,y,z
0.0,-2.6275634765625,4.9798583984375,-1.4263916015625
0.0005,-1.4263916015625,5.1400146484375,-2.8677978515625
0.001,-0.6256103515625,5.4603271484375,-3.9888916015625
0.0015,0.0550537109375,5.7406005859375,-4.8297119140625
0.002,0.8958740234375,5.4202880859375,-5.3902587890625
0.0025,2.0169677734375,4.4193115234375,-5.7105712890625
0.003,3.2581787109375,3.2581787109375,-5.9508056640625
0.0035,4.3392333984375,1.9769287109375,-6.1510009765625
0.004,4.9798583984375,1.2562255859375,-6.2711181640625
0.0045,5.1400146484375,0.6156005859375,-6.1510009765625
0.005,5.0599365234375,-0.2652587890625,-5.6304931640625
0.0055,4.8197021484375,-1.4263916015625,-4.4693603515625
0.006,4.6595458984375,-2.7076416015625,-3.2281494140625
0.0065,4.6995849609375,-3.9088134765625,-2.3072509765625
0.007,4.5394287109375,-4.6695556640625,-1.6265869140625
0.0075,4.0989990234375,-5.1099853515625,-0.8658447265625
0.008,3.1781005859375,-5.3101806640625,0.2552490234375
0.0085,2.0169677734375,-5.5904541015625,1.5765380859375
0.009,0.8157958984375,-5.8306884765625,3.0179443359375
0.0095,0.1751708984375,-6.1510009765625,3.9788818359375
0.01,-0.5855712890625,-6.2711181640625,4.7796630859375
0.0105,-1.3863525390625,-5.7906494140625,5.2200927734375
0.011,-2.6275634765625,-4.6695556640625,5.5003662109375
0.0115,-3.8287353515625,-3.4683837890625,5.7406005859375
0.012,-4.7896728515625,-2.4273681640625,5.9407958984375
0.0125,-5.1900634765625,-1.8267822265625,6.0609130859375
0.013,-5.2701416015625,-1.1461181640625,5.7406005859375
0.0135,-5.1500244140625,-0.3453369140625,5.0599365234375
0.014,-4.9898681640625,0.9359130859375,3.9788818359375
0.0145,-4.9498291015625,2.2972412109375,2.8577880859375
0.015,-4.9898681640625,3.2581787109375,2.0970458984375
0.0155,-4.8297119140625,3.9388427734375,1.4564208984375
0.016,-4.2691650390625,4.3392333984375,0.7357177734375
0.0165,-3.2281494140625,4.4993896484375,-0.5855712890625
0.017,-2.1871337890625,4.8197021484375,-1.8668212890625
0.0175,-1.2261962890625,5.1800537109375,-3.1480712890625
0.018,-0.5855712890625,5.5404052734375,-4.1090087890625
0.0185,0.2552490234375,5.5003662109375,-4.7896728515625
0.019,1.2161865234375,4.8997802734375,-5.2701416015625
0.0195,2.4974365234375,3.8187255859375,-5.6304931640625
0.02,3.6986083984375,2.5374755859375,-5.8707275390625
0.0205,4.4993896484375,1.7366943359375,-6.1109619140625
0.021,4.8597412109375,1.1361083984375,-6.1910400390625
0.0215,4.8597412109375,0.4554443359375,-5.7506103515625
0.022,4.7396240234375,-0.6656494140625,-4.9097900390625
0.0225,4.6595458984375,-1.9068603515625,-3.8687744140625
0.023,4.6595458984375,-3.1881103515625,-2.8677978515625
0.0235,4.6195068359375,-4.1090087890625,-2.1070556640625
0.024,4.4193115234375,-4.7095947265625,-1.4664306640625
0.0245,3.7386474609375,-5.0699462890625,-0.6256103515625
0.025,2.5775146484375,-5.3502197265625,0.8157958984375
0.0255,1.3763427734375,-5.6304931640625,2.2572021484375
0.026,0.6156005859375,-6.0308837890625,3.4183349609375
0.0265,0.0150146484375,-6.2711181640625,4.2991943359375
0.027,-0.9459228515625,-6.0308837890625,4.8997802734375
0.0275,-2.0269775390625,-5.1500244140625,5.3001708984375
0.028,-3.2281494140625,-4.0289306640625,5.6204833984375
0.0285,-4.4293212890625,-2.8277587890625,5.9007568359375
0.029,-5.0699462890625,-2.1070556640625,6.0609130859375
0.0295,-5.2301025390625,-1.4664306640625,5.9407958984375
0.03,-5.1500244140625,-0.7457275390625,5.4202880859375
0.0305,-4.9898681640625,0.4954833984375,4.3392333984375
0.031,-4.9498291015625,1.8568115234375,3.2181396484375
0.0315,-5.0299072265625,3.0179443359375,2.2972412109375
0.032,-4.9097900390625,3.8187255859375,1.6165771484375
0.0325,-4.4693603515625,4.2191162109375,0.9359130859375
0.033,-3.5885009765625,4.4993896484375,-0.1851806640625
0.0335,-2.5074462890625,4.8197021484375,-1.5865478515625
0.034,-1.3062744140625,5.1400146484375,-3.0279541015625
0.0345,-0.6656494140625,5.5003662109375,-3.9888916015625
0.035,0.1351318359375,5.6204833984375,-4.7896728515625
0.0355,1.0159912109375,5.0999755859375,-5.3101806640625
0.036,2.3773193359375,3.9788818359375,-5.7105712890625
0.0365,3.5784912109375,2.6976318359375,-5.9107666015625
0.037,4.5394287109375,1.7366943359375,-6.1510009765625
0.0375,4.9798583984375,1.0560302734375,-6.2310791015625
0.038,5.0198974609375,0.3753662109375,-5.9107666015625
0.0385,4.8997802734375,-0.6256103515625,-5.1500244140625
0.039,4.7396240234375,-1.9068603515625,-3.9888916015625
0.0395,4.6595458984375,-3.2681884765625,-2.7476806640625
0.04,4.6195068359375,-4.3492431640625,-1.9468994140625
0.0405,4.4593505859375,-4.9898681640625,-1.2662353515625
0.041,3.7786865234375,-5.3101806640625,-0.4654541015625
0.0415,2.5775146484375,-5.4703369140625,0.8958740234375
0.042,1.4163818359375,-5.7105712890625,2.2972412109375
0.0425,0.4554443359375,-6.0308837890625,3.5784912109375
0.043,-0.3052978515625,-6.2711181640625,4.4993896484375
0.0435,-1.0260009765625,-6.1109619140625,5.0999755859375
0.044,-2.0269775390625,-5.3902587890625,5.5003662109375
0.0445,-3.3883056640625,-4.0289306640625,5.8206787109375
0.045,-4.6295166015625,-2.7476806640625,6.0208740234375
0.0455,-5.3101806640625,-1.8668212890625,6.1409912109375
0.046,-5.5504150390625,-1.2662353515625,6.0609130859375
0.0465,-5.4302978515625,-0.5054931640625,5.5003662109375
0.047,-5.1900634765625,0.6556396484375,4.4593505859375
0.0475,-5.0699462890625,1.9769287109375,3.2581787109375
0.048,-5.0299072265625,3.2581787109375,2.1370849609375
0.0485,-4.9097900390625,4.0589599609375,1.3763427734375
0.049,-4.5093994140625,4.5394287109375,0.6956787109375
0.0495,-3.7086181640625,4.7796630859375,-0.3052978515625
0.05,-2.4273681640625,4.9798583984375,-1.7066650390625
0.0505,-1.1861572265625,5.2601318359375,-3.1881103515625
0.051,-0.4254150390625,5.5804443359375,-4.2691650390625
0.0515,0.2952880859375,5.7005615234375,-5.0699462890625
0.052,1.2161865234375,5.2601318359375,-5.5904541015625
0.0525,2.4173583984375,4.1390380859375,-5.9107666015625
0.053,3.6986083984375,2.8577880859375,-6.1109619140625
0.0535,4.7796630859375,1.5765380859375,-6.2711181640625
0.054,5.2601318359375,0.8558349609375,-6.3511962890625
0.0545,5.3802490234375,0.1751708984375,-6.1109619140625
0.055,5.1400146484375,-0.7056884765625,-5.3902587890625
0.0555,4.8597412109375,-2.0269775390625,-4.0289306640625
0.056,4.7396240234375,-3.3883056640625,-2.8277587890625
0.0565,4.7396240234375,-4.6295166015625,-1.9068603515625
0.057,4.4993896484375,-5.2301025390625,-1.1461181640625
0.0575,3.8587646484375,-5.5904541015625,-0.3453369140625
0.058,2.7777099609375,-5.7105712890625,0.9359130859375
0.0585,1.4163818359375,-5.9107666015625,2.4173583984375
0.059,0.2552490234375,-6.1510009765625,3.8587646484375
0.0595,-0.5054931640625,-6.3912353515625,4.8197021484375
0.06,-1.1461181640625,-6.3511962890625,5.4603271484375
0.0605,-2.1871337890625,-5.6304931640625,5.9007568359375
0.061,-3.5885009765625,-4.1890869140625,6.1409912109375
0.0615,-4.8297119140625,-2.8677978515625,6.2611083984375
0.062,-5.7105712890625,-1.7467041015625,6.4212646484375
0.0625,-5.9908447265625,-1.0660400390625,6.3411865234375
0.063,-5.8707275390625,-0.3052978515625,5.7806396484375
0.0635,-5.6304931640625,0.8157958984375,4.7796630859375
0.064,-5.3502197265625,2.2572021484375,3.3782958984375
0.0645,-5.1900634765625,3.6585693359375,1.9769287109375
0.065,-5.1099853515625,4.6195068359375,1.1361083984375
0.0655,-4.7095947265625,5.0999755859375,0.3753662109375
0.066,-3.7886962890625,5.3001708984375,-0.5855712890625
0.0665,-2.3472900390625,5.4202880859375,-2.0670166015625
0.067,-0.9859619140625,5.6204833984375,-3.5885009765625
0.0675,0.1351318359375,5.8206787109375,-4.9097900390625
0.068,0.7757568359375,5.9007568359375,-5.7105712890625
0.0685,1.5765380859375,5.5003662109375,-6.2310791015625
0.069,2.8177490234375,4.3792724609375,-6.5513916015625
0.0695,4.2591552734375,2.8577880859375,-6.7115478515625
0.07,5.4202880859375,1.3363037109375,-6.7115478515625
0.0705,5.9808349609375,0.4154052734375,-6.7115478515625
0.071,6.0208740234375,-0.3853759765625,-6.3912353515625
0.0715,5.7406005859375,-1.2662353515625,-5.5103759765625
0.072,5.3402099609375,-2.6676025390625,-4.0689697265625
0.0725,5.0599365234375,-4.1090087890625,-2.5875244140625
0.073,4.8597412109375,-5.3902587890625,-1.3863525390625
0.0735,4.4993896484375,-6.0308837890625,-0.6256103515625
0.074,3.8988037109375,-6.3111572265625,0.2952880859375
0.0745,2.7376708984375,-6.3111572265625,1.3363037109375
0.075,1.0960693359375,-6.3511962890625,3.0179443359375
0.0755,-0.4654541015625,-6.3912353515625,4.5394287109375
0.076,-1.1861572265625,-6.5513916015625,5.5404052734375
0.0765,-1.7867431640625,-6.4713134765625,6.1409912109375
0.077,-2.7877197265625,-5.7105712890625,6.5413818359375
0.0775,-4.1090087890625,-4.2691650390625,6.7015380859375
0.078,-5.3101806640625,-2.7877197265625,6.7015380859375
0.0785,-6.2711181640625,-1.4263916015625,6.7015380859375
0.079,-6.5513916015625,-0.5855712890625,6.5413818359375
0.0795,-6.3912353515625,0.2552490234375,6.0208740234375
0.08,-6.0308837890625,1.1761474609375,4.9798583984375
0.0805,-5.6304931640625,2.5775146484375,3.3782958984375
0.081,-5.2701416015625,3.9788818359375,1.8968505859375
0.0815,-5.1500244140625,5.0198974609375,0.8958740234375
0.082,-4.6695556640625,5.5404052734375,0.1751708984375
0.0825,-3.8687744140625,5.7005615234375,-0.7457275390625
0.083,-2.5074462890625,5.7005615234375,-2.0269775390625
0.0835,-0.9859619140625,5.7406005859375,-3.5885009765625
0.084,0.3753662109375,5.8206787109375,-5.0299072265625
0.0845,0.9759521484375,5.9808349609375,-5.8306884765625
0.085,1.6566162109375,5.7406005859375,-6.3912353515625
0.0855,2.7376708984375,4.7796630859375,-6.7115478515625
0.086,4.1390380859375,3.1781005859375,-6.8316650390625
0.0865,5.3001708984375,1.6966552734375,-6.8316650390625
0.087,6.0609130859375,0.6156005859375,-6.8316650390625
0.0875,6.1810302734375,-0.2252197265625,-6.5914306640625
0.088,5.9407958984375,-0.9859619140625,-5.9508056640625
0.0885,5.5804443359375,-2.1070556640625,-4.7896728515625
0.089,5.1800537109375,-3.5885009765625,-3.2281494140625
0.0895,4.8997802734375,-4.9898681640625,-1.7867431640625
0.09,4.7396240234375,-5.8306884765625,-0.9058837890625
0.0905,4.2991943359375,-6.2711181640625,-0.1851806640625
0.091,3.2581787109375,-6.3111572265625,0.8157958984375
0.0915,1.7767333984375,-6.3511962890625,2.3372802734375
0.092,0.2552490234375,-6.3912353515625,3.8587646484375
0.0925,-0.8258056640625,-6.5513916015625,5.0999755859375
0.093,-1.4664306640625,-6.5914306640625,5.8607177734375
0.0935,-2.2271728515625,-6.1510009765625,6.3812255859375
0.094,-3.3482666015625,-5.0699462890625,6.5413818359375
0.0945,-4.7496337890625,-3.5484619140625,6.7015380859375
0.095,-5.8707275390625,-2.0269775390625,6.7015380859375
0.0955,-6.4312744140625,-1.0660400390625,6.7015380859375
0.096,-6.4312744140625,-0.3853759765625,6.3812255859375
0.0965,-6.1109619140625,0.4954833984375,5.5404052734375
0.097,-5.7506103515625,1.7767333984375,4.1390380859375
0.0975,-5.4302978515625,3.1781005859375,2.6575927734375
0.098,-5.2701416015625,4.5394287109375,1.4163818359375
0.0985,-4.9898681640625,5.2601318359375,0.6156005859375
0.099,-4.4293212890625,5.6204833984375,-0.2652587890625
0.0995,-3.3082275390625,5.6605224609375,-1.2261962890625
0.1,-1.7066650390625,5.7005615234375,-2.8677978515625
0.1005,-0.2652587890625,5.7806396484375,-4.4693603515625
0.101,0.6156005859375,6.0208740234375,-5.5103759765625
0.1015,1.2962646484375,5.9407958984375,-6.1910400390625
0.102,2.2572021484375,5.2601318359375,-6.5914306640625
0.1025,3.5784912109375,3.8587646484375,-6.7916259765625
0.103,4.8197021484375,2.3773193359375,-6.9117431640625
0.1035,5.8607177734375,0.9759521484375,-6.9117431640625
0.104,6.2210693359375,0.1351318359375,-6.7916259765625
0.1045,6.1409912109375,-0.7056884765625,-6.3912353515625
0.105,5.7806396484375,-1.6666259765625,-5.3502197265625
0.1055,5.3402099609375,-3.1881103515625,-3.7086181640625
0.106,5.0599365234375,-4.5894775390625,-2.2271728515625
0.1065,4.9398193359375,-5.7105712890625,-1.1461181640625
0.107,4.4993896484375,-6.2310791015625,-0.3853759765625
0.1075,3.6585693359375,-6.3912353515625,0.5755615234375
0.108,2.2572021484375,-6.4312744140625,1.8968505859375
0.1085,0.6556396484375,-6.4713134765625,3.5384521484375
0.109,-0.7857666015625,-6.5513916015625,5.0599365234375
0.1095,-1.4263916015625,-6.6715087890625,5.9007568359375
0.11,-2.1070556640625,-6.4312744140625,6.4212646484375
0.1105,-3.1480712890625,-5.4703369140625,6.7015380859375
0.111,-4.5894775390625,-3.8287353515625,6.8616943359375
0.1115,-5.7506103515625,-2.3072509765625,6.7816162109375
0.112,-6.4713134765625,-1.1461181640625,6.7415771484375
0.1125,-6.5914306640625,-0.4654541015625,6.5413818359375
0.113,-6.3511962890625,0.4554443359375,5.7806396484375
0.1135,-5.9508056640625,1.4964599609375,4.5794677734375
0.114,-5.5103759765625,2.9779052734375,3.0179443359375
0.1145,-5.2301025390625,4.3792724609375,1.5364990234375
0.115,-4.9898681640625,5.2200927734375,0.6556396484375
0.1155,-4.5093994140625,5.6204833984375,-0.1851806640625
0.116,-3.5484619140625,5.7005615234375,-1.0260009765625
0.1165,-1.9869384765625,5.6605224609375,-2.5474853515625
0.117,-0.6256103515625,5.7406005859375,-3.9888916015625
0.1175,0.5755615234375,5.8206787109375,-5.2301025390625
0.118,1.1361083984375,5.9007568359375,-5.9107666015625
0.1185,1.8968505859375,5.5003662109375,-6.3912353515625
0.119,2.9378662109375,4.4593505859375,-6.6715087890625
0.1195,4.3392333984375,2.8577880859375,-6.7515869140625
0.12,5.4202880859375,1.3763427734375,-6.7515869140625
0.1205,5.9808349609375,0.4154052734375,-6.7115478515625
0.121,6.0208740234375,-0.3052978515625,-6.4312744140625
0.1215,5.7005615234375,-1.1060791015625,-5.7105712890625
0.122,5.3001708984375,-2.2672119140625,-4.3092041015625
0.1225,4.9798583984375,-3.6285400390625,-2.9078369140625
0.123,4.8197021484375,-4.9498291015625,-1.6666259765625
0.1235,4.5794677734375,-5.6705322265625,-0.9058837890625
0.124,4.0589599609375,-6.0308837890625,-0.1451416015625
0.1245,3.0579833984375,-6.1109619140625,0.8958740234375
0.125,1.5765380859375,-6.1510009765625,2.4173583984375
0.1255,0.1351318359375,-6.2711181640625,3.9388427734375
0.126,-0.7457275390625,-6.4713134765625,5.0198974609375
0.1265,-1.3062744140625,-6.5513916015625,5.7005615234375
0.127,-2.1871337890625,-5.9508056640625,6.1009521484375
0.1275,-3.3883056640625,-4.7496337890625,6.3411865234375
0.128,-4.6295166015625,-3.3482666015625,6.4613037109375
0.1285,-5.7105712890625,-2.0670166015625,6.5013427734375
0.129,-6.1109619140625,-1.2662353515625,6.4613037109375
0.1295,-6.1510009765625,-0.5855712890625,6.1009521484375
0.13,-5.8306884765625,0.4154052734375,5.3402099609375
0.1305,-5.4703369140625,1.7767333984375,3.8988037109375
0.131,-5.2701416015625,3.1781005859375,2.5374755859375
0.1315,-5.1900634765625,4.3392333984375,1.4964599609375
0.132,-4.9097900390625,4.9798583984375,0.7357177734375
0.1325,-4.1890869140625,5.2601318359375,-0.1451416015625
0.133,-3.0279541015625,5.3402099609375,-1.3062744140625
0.1335,-1.6265869140625,5.5003662109375,-2.8277587890625
0.134,-0.3453369140625,5.6605224609375,-4.3092041015625
0.1345,0.3753662109375,5.9007568359375,-5.1900634765625
0.135,1.0159912109375,5.7806396484375,-5.8306884765625
0.1355,1.9769287109375,5.0599365234375,-6.1910400390625
0.136,3.3782958984375,3.5784912109375,-6.3912353515625
0.1365,4.5394287109375,2.1771240234375,-6.4713134765625
0.137,5.4202880859375,1.0159912109375,-6.5513916015625
0.1375,5.6605224609375,0.3353271484375,-6.4713134765625
0.138,5.5804443359375,-0.4654541015625,-5.9508056640625
0.1385,5.2601318359375,-1.4263916015625,-4.9898681640625
0.139,4.9798583984375,-2.7476806640625,-3.5885009765625
0.1395,4.7796630859375,-4.1490478515625,-2.2672119140625
0.14,4.6595458984375,-5.0699462890625,-1.3463134765625
0.1405,4.3392333984375,-5.6304931640625,-0.7056884765625
0.141,3.5384521484375,-5.7506103515625,0.2552490234375
0.1415,2.2171630859375,-5.8306884765625,1.5364990234375
0.142,0.8157958984375,-5.9908447265625,3.0179443359375
0.1425,-0.2652587890625,-6.1910400390625,4.2591552734375
0.143,-0.8258056640625,-6.3912353515625,5.0999755859375
0.1435,-1.5465087890625,-6.1109619140625,5.6204833984375
0.144,-2.5074462890625,-5.2701416015625,5.9007568359375
0.1445,-3.7886962890625,-3.9888916015625,6.0609130859375
0.145,-4.9498291015625,-2.6275634765625,6.1409912109375
0.1455,-5.6304931640625,-1.7467041015625,6.2611083984375
0.146,-5.7506103515625,-1.1060791015625,6.1009521484375
0.1465,-5.5504150390625,-0.3453369140625,5.5003662109375
0.147,-5.2701416015625,0.7757568359375,4.4993896484375
0.1475,-5.0699462890625,2.0169677734375,3.2581787109375
0.148,-4.9898681640625,3.2982177734375,2.1370849609375
0.1485,-4.8697509765625,4.1390380859375,1.4163818359375
0.149,-4.5093994140625,4.6195068359375,0.7357177734375
0.1495,-3.7886962890625,4.8197021484375,-0.1851806640625
0.15,-2.5474853515625,4.9798583984375,-1.5465087890625
0.1505,-1.3062744140625,5.1800537109375,-2.9478759765625
0.151,-0.5054931640625,5.5003662109375,-4.1090087890625
0.1515,0.1751708984375,5.7406005859375,-4.8697509765625
0.152,1.0159912109375,5.3402099609375,-5.4302978515625
0.1525,2.0970458984375,4.3392333984375,-5.7506103515625
0.153,3.3382568359375,3.1781005859375,-6.0308837890625
0.1535,4.4193115234375,1.9368896484375,-6.1910400390625
0.154,4.9798583984375,1.2562255859375,-6.2711181640625
0.1545,5.1400146484375,0.6156005859375,-6.1510009765625
0.155,5.0599365234375,-0.2652587890625,-5.5504150390625
0.1555,4.8197021484375,-1.4263916015625,-4.4293212890625
0.156,4.6595458984375,-2.7476806640625,-3.2281494140625
0.1565,4.7396240234375,-3.9088134765625,-2.3072509765625
0.157,4.6195068359375,-4.6295166015625,-1.6265869140625
0.1575,4.1390380859375,-5.0699462890625,-0.9459228515625
0.158,3.1781005859375,-5.3101806640625,0.1751708984375
0.1585,2.0570068359375,-5.5103759765625,1.5364990234375
0.159,0.8558349609375,-5.7906494140625,2.9378662109375
0.1595,0.1751708984375,-6.1109619140625,3.9788818359375
0.16,-0.5054931640625,-6.2711181640625,4.7396240234375
0.1605,-1.4263916015625,-5.7906494140625,5.1800537109375
0.161,-2.6275634765625,-4.7496337890625,5.5003662109375
0.1615,-3.8687744140625,-3.5484619140625,5.7406005859375
0.162,-4.7896728515625,-2.4674072265625,6.0208740234375
0.1625,-5.1900634765625,-1.8668212890625,6.1009521484375
0.163,-5.3101806640625,-1.1461181640625,5.7806396484375
0.1635,-5.1500244140625,-0.3453369140625,5.0999755859375
0.164,-4.9898681640625,0.9359130859375,3.9788818359375
0.1645,-4.9498291015625,2.2972412109375,2.8177490234375
0.165,-4.9898681640625,3.3382568359375,2.0570068359375
0.1655,-4.8297119140625,3.9788818359375,1.4163818359375
0.166,-4.2291259765625,4.3392333984375,0.6556396484375
0.1665,-3.1881103515625,4.5394287109375,-0.6256103515625
0.167,-2.1070556640625,4.8997802734375,-1.9468994140625
0.1675,-1.1461181640625,5.2601318359375,-3.2281494140625
0.168,-0.5455322265625,5.5804443359375,-4.1490478515625
0.1685,0.2952880859375,5.4202880859375,-4.8697509765625
0.169,1.2562255859375,4.8597412109375,-5.3101806640625
0.1695,2.4974365234375,3.6986083984375,-5.7105712890625
0.17,3.7786865234375,2.4974365234375,-5.9107666015625
0.1705,4.5394287109375,1.6165771484375,-6.1109619140625
0.171,4.8997802734375,1.0560302734375,-6.1510009765625
0.1715,4.8997802734375,0.3753662109375,-5.7506103515625
0.172,4.7396240234375,-0.7857666015625,-4.8297119140625
0.1725,4.6195068359375,-1.9869384765625,-3.7886962890625
0.173,4.6195068359375,-3.3082275390625,-2.7076416015625
0.1735,4.6195068359375,-4.2291259765625,-1.9869384765625
0.174,4.3392333984375,-4.8297119140625,-1.3062744140625
0.1745,3.6585693359375,-5.1099853515625,-0.4654541015625
0.175,2.4974365234375,-5.3902587890625,0.9759521484375
0.1755,1.2962646484375,-5.6705322265625,2.4173583984375
0.176,0.5355224609375,-6.0308837890625,3.5384521484375
0.1765,-0.1851806640625,-6.3111572265625,4.4193115234375
0.177,-0.9859619140625,-6.0308837890625,4.9798583984375
0.1775,-2.1070556640625,-5.1099853515625,5.3001708984375
