wavelength,x,y,z
0.0,2.172119140625,1.571533203125,-4.834716796875
0.0005,1.571533203125,2.292236328125,-5.074951171875
0.001,0.570556640625,3.413330078125,-5.155029296875
0.0015,-0.510498046875,3.853759765625,-4.554443359375
0.002,-1.311279296875,4.494384765625,-4.234130859375
0.0025,-2.152099609375,4.814697265625,-3.633544921875
0.003,-3.072998046875,4.974853515625,-2.832763671875
0.0035,-3.713623046875,5.054931640625,-2.192138671875
0.004,-4.474365234375,4.974853515625,-1.271240234375
0.0045,-4.514404296875,4.174072265625,-0.310302734375
0.005,-4.914794921875,3.973876953125,0.450439453125
0.0055,-4.874755859375,2.812744140625,1.731689453125
0.006,-4.834716796875,2.092041015625,2.412353515625
0.0065,-4.634521484375,1.131103515625,3.293212890625
0.007,-4.194091796875,0.170166015625,3.853759765625
0.0075,-3.553466796875,-0.790771484375,4.134033203125
0.008,-3.072998046875,-1.591552734375,4.494384765625
0.0085,-1.991943359375,-2.832763671875,4.494384765625
0.009,-1.271240234375,-3.473388671875,4.454345703125
0.0095,-0.270263671875,-4.394287109375,4.214111328125
0.01,0.770751953125,-4.594482421875,3.533447265625
0.0105,1.411376953125,-4.954833984375,3.213134765625
0.011,2.332275390625,-5.114990234375,2.372314453125
0.0115,3.012939453125,-5.114990234375,1.611572265625
0.012,3.453369140625,-4.994873046875,0.970947265625
0.0125,3.893798828125,-4.754638671875,0.130126953125
0.013,3.853759765625,-3.993896484375,-0.710693359375
0.0135,4.134033203125,-3.753662109375,-1.271240234375
0.014,3.973876953125,-2.592529296875,-2.392333984375
0.0145,3.933837890625,-2.072021484375,-2.872802734375
0.015,3.733642578125,-1.191162109375,-3.673583984375
0.0155,3.213134765625,-0.350341796875,-4.033935546875
0.016,2.852783203125,0.370361328125,-4.354248046875
0.0165,2.292236328125,1.091064453125,-4.554443359375
0.017,1.571533203125,2.011962890625,-4.794677734375
0.0175,0.850830078125,2.692626953125,-4.754638671875
0.018,0.010009765625,3.533447265625,-4.634521484375
0.0185,-0.990966796875,3.893798828125,-3.993896484375
0.019,-1.551513671875,4.414306640625,-3.913818359375
0.0195,-2.512451171875,4.534423828125,-3.072998046875
0.02,-3.072998046875,4.734619140625,-2.592529296875
0.0205,-3.713623046875,4.734619140625,-1.871826171875
0.021,-4.114013671875,4.454345703125,-1.031005859375
0.0215,-4.314208984375,3.933837890625,-0.270263671875
0.022,-4.594482421875,3.533447265625,0.570556640625
0.0225,-4.634521484375,2.492431640625,1.731689453125
0.023,-4.634521484375,1.971923828125,2.332275390625
0.0235,-4.434326171875,0.970947265625,3.173095703125
0.024,-3.873779296875,0.130126953125,3.573486328125
0.0245,-3.553466796875,-0.790771484375,4.013916015625
0.025,-2.792724609375,-1.791748046875,4.214111328125
0.0255,-1.951904296875,-2.872802734375,4.454345703125
0.026,-1.111083984375,-3.473388671875,4.294189453125
0.0265,-0.150146484375,-4.234130859375,4.013916015625
0.027,0.810791015625,-4.514404296875,3.413330078125
0.0275,1.491455078125,-4.914794921875,3.093017578125
0.028,2.532470703125,-5.074951171875,2.052001953125
0.0285,3.093017578125,-5.114990234375,1.451416015625
0.029,3.573486328125,-4.834716796875,0.610595703125
0.0295,3.893798828125,-4.474365234375,-0.190185546875
0.03,3.893798828125,-3.793701171875,-0.990966796875
0.0305,4.013916015625,-3.193115234375,-1.831787109375
0.031,4.013916015625,-2.112060546875,-2.872802734375
0.0315,3.773681640625,-1.551513671875,-3.313232421875
0.032,3.453369140625,-0.630615234375,-3.993896484375
0.0325,2.852783203125,0.250244140625,-4.194091796875
0.033,2.452392578125,0.930908203125,-4.514404296875
0.0335,1.571533203125,1.891845703125,-4.634521484375
0.034,0.930908203125,2.732666015625,-4.754638671875
0.0345,0.090087890625,3.253173828125,-4.354248046875
0.035,-0.790771484375,3.853759765625,-4.114013671875
0.0355,-1.511474609375,4.013916015625,-3.553466796875
0.036,-2.072021484375,4.334228515625,-3.193115234375
0.0365,-3.032958984375,4.494384765625,-2.352294921875
0.037,-3.353271484375,4.454345703125,-1.951904296875
0.0375,-3.793701171875,4.174072265625,-1.151123046875
0.038,-3.993896484375,3.813720703125,-0.510498046875
0.0385,-4.154052734375,3.373291015625,0.290283203125
0.039,-4.234130859375,2.692626953125,1.131103515625
0.0395,-4.354248046875,1.971923828125,1.971923828125
0.04,-4.114013671875,1.331298828125,2.452392578125
0.0405,-3.953857421875,0.570556640625,3.093017578125
0.041,-3.393310546875,-0.310302734375,3.333251953125
0.0415,-3.153076171875,-1.031005859375,3.853759765625
0.042,-2.272216796875,-1.991943359375,3.973876953125
0.0425,-1.751708984375,-2.752685546875,4.174072265625
0.043,-0.710693359375,-3.393310546875,3.813720703125
0.0435,0.090087890625,-3.993896484375,3.653564453125
0.044,0.850830078125,-4.354248046875,3.173095703125
0.0445,1.531494140625,-4.634521484375,2.772705078125
0.045,2.492431640625,-4.914794921875,1.971923828125
0.0455,2.852783203125,-4.834716796875,1.411376953125
0.046,3.373291015625,-4.594482421875,0.610595703125
0.0465,3.613525390625,-4.154052734375,-0.190185546875
0.047,3.853759765625,-3.673583984375,-1.031005859375
0.0475,3.893798828125,-2.832763671875,-1.991943359375
0.048,3.973876953125,-2.112060546875,-2.872802734375
0.0485,3.533447265625,-1.391357421875,-3.273193359375
0.049,3.373291015625,-0.590576171875,-3.953857421875
0.0495,2.692626953125,0.290283203125,-4.154052734375
0.05,2.292236328125,1.131103515625,-4.514404296875
0.0505,1.331298828125,2.252197265625,-4.674560546875
0.051,0.650634765625,2.972900390625,-4.674560546875
0.0515,-0.430419921875,3.493408203125,-4.154052734375
0.052,-1.111083984375,3.973876953125,-3.913818359375
0.0525,-1.791748046875,4.134033203125,-3.313232421875
0.053,-2.512451171875,4.374267578125,-2.752685546875
0.0535,-3.353271484375,4.534423828125,-1.991943359375
0.054,-3.593505859375,4.134033203125,-1.311279296875
0.0545,-3.993896484375,3.973876953125,-0.630615234375
0.055,-4.033935546875,3.333251953125,0.130126953125
0.0555,-4.194091796875,2.852783203125,0.890869140625
0.056,-4.154052734375,1.931884765625,1.851806640625
0.0565,-4.154052734375,1.331298828125,2.452392578125
0.057,-3.593505859375,0.570556640625,2.732666015625
0.0575,-3.473388671875,-0.150146484375,3.213134765625
0.058,-2.872802734375,-0.870849609375,3.413330078125
0.0585,-2.432373046875,-1.551513671875,3.693603515625
0.059,-1.591552734375,-2.512451171875,3.853759765625
0.0595,-0.990966796875,-2.992919921875,3.693603515625
0.06,-0.150146484375,-3.553466796875,3.373291015625
0.0605,0.490478515625,-3.873779296875,3.093017578125
0.061,1.131103515625,-4.154052734375,2.692626953125
0.0615,1.771728515625,-4.354248046875,2.172119140625
0.062,2.452392578125,-4.594482421875,1.651611328125
0.0625,2.652587890625,-4.234130859375,1.010986328125
0.063,3.173095703125,-4.234130859375,0.490478515625
0.0635,3.213134765625,-3.633544921875,-0.350341796875
0.064,3.533447265625,-3.353271484375,-1.111083984375
0.0645,3.573486328125,-2.552490234375,-1.991943359375
0.065,3.653564453125,-2.152099609375,-2.552490234375
0.0655,3.253173828125,-1.311279296875,-3.153076171875
0.066,3.133056640625,-0.630615234375,-3.593505859375
0.0665,2.612548828125,0.330322265625,-3.993896484375
0.067,2.172119140625,1.131103515625,-4.314208984375
0.0675,1.371337890625,2.172119140625,-4.594482421875
0.068,0.570556640625,2.652587890625,-4.274169921875
0.0685,-0.310302734375,3.373291015625,-4.154052734375
0.069,-0.990966796875,3.733642578125,-3.713623046875
0.0695,-1.751708984375,4.134033203125,-3.353271484375
0.07,-2.552490234375,4.334228515625,-2.672607421875
0.0705,-3.233154296875,4.494384765625,-2.072021484375
0.071,-3.513427734375,3.973876953125,-1.271240234375
0.0715,-3.953857421875,3.973876953125,-0.630615234375
0.072,-3.993896484375,3.133056640625,0.330322265625
0.0725,-4.194091796875,2.572509765625,1.131103515625
0.073,-4.234130859375,1.691650390625,2.172119140625
0.0735,-3.993896484375,0.970947265625,2.612548828125
0.074,-3.593505859375,0.210205078125,3.093017578125
0.0745,-3.233154296875,-0.510498046875,3.453369140625
0.075,-2.592529296875,-1.311279296875,3.653564453125
0.0755,-1.951904296875,-2.192138671875,3.813720703125
0.076,-1.151123046875,-3.072998046875,3.893798828125
0.0765,-0.230224609375,-3.393310546875,3.293212890625
0.077,0.410400390625,-3.993896484375,3.253173828125
0.0775,1.091064453125,-4.114013671875,2.612548828125
0.078,1.731689453125,-4.354248046875,2.212158203125
0.0785,2.492431640625,-4.474365234375,1.531494140625
0.079,2.892822265625,-4.354248046875,0.890869140625
0.0795,3.052978515625,-3.913818359375,0.250244140625
0.08,3.293212890625,-3.753662109375,-0.310302734375
0.0805,3.333251953125,-3.072998046875,-1.191162109375
0.081,3.413330078125,-2.552490234375,-1.831787109375
0.0815,3.493408203125,-1.911865234375,-2.672607421875
0.082,3.133056640625,-1.231201171875,-2.912841796875
0.0825,3.012939453125,-0.630615234375,-3.513427734375
0.083,2.492431640625,0.170166015625,-3.713623046875
0.0835,2.172119140625,0.890869140625,-4.114013671875
0.084,1.411376953125,1.771728515625,-4.234130859375
0.0845,0.810791015625,2.532470703125,-4.354248046875
0.085,-0.190185546875,2.932861328125,-3.873779296875
0.0855,-0.670654296875,3.573486328125,-3.913818359375
0.086,-1.431396484375,3.773681640625,-3.313232421875
0.0865,-2.072021484375,4.134033203125,-3.032958984375
0.087,-2.912841796875,4.414306640625,-2.312255859375
0.0875,-3.273193359375,4.134033203125,-1.631591796875
0.088,-3.673583984375,3.973876953125,-0.990966796875
0.0885,-3.953857421875,3.493408203125,-0.310302734375
0.089,-4.154052734375,2.852783203125,0.690673828125
0.0895,-4.154052734375,2.252197265625,1.411376953125
0.09,-4.314208984375,1.531494140625,2.412353515625
0.0905,-3.793701171875,0.690673828125,2.812744140625
0.091,-3.713623046875,0.010009765625,3.453369140625
0.0915,-3.032958984375,-0.950927734375,3.653564453125
0.092,-2.512451171875,-1.791748046875,3.973876953125
0.0925,-1.591552734375,-2.792724609375,4.053955078125
0.093,-0.710693359375,-3.473388671875,3.893798828125
0.0935,0.210205078125,-3.873779296875,3.373291015625
0.094,0.810791015625,-4.394287109375,3.213134765625
0.0945,1.811767578125,-4.514404296875,2.292236328125
0.095,2.332275390625,-4.674560546875,1.891845703125
0.0955,3.173095703125,-4.834716796875,1.091064453125
0.096,3.333251953125,-4.234130859375,0.290283203125
0.0965,3.533447265625,-4.114013671875,-0.350341796875
0.097,3.693603515625,-3.353271484375,-1.271240234375
0.0975,3.693603515625,-2.712646484375,-2.192138671875
0.098,3.573486328125,-1.871826171875,-2.752685546875
0.0985,3.533447265625,-1.111083984375,-3.473388671875
0.099,2.852783203125,-0.270263671875,-3.713623046875
0.0995,2.732666015625,0.330322265625,-4.154052734375
0.1,1.851806640625,1.291259765625,-4.194091796875
0.1005,1.371337890625,1.931884765625,-4.394287109375
0.101,0.530517578125,2.852783203125,-4.434326171875
0.1015,-0.350341796875,3.253173828125,-3.993896484375
0.102,-1.031005859375,3.653564453125,-3.673583984375
0.1025,-1.591552734375,3.973876953125,-3.353271484375
0.103,-2.432373046875,4.134033203125,-2.632568359375
0.1035,-2.832763671875,4.214111328125,-2.272216796875
0.104,-3.513427734375,4.294189453125,-1.591552734375
0.1045,-3.753662109375,3.653564453125,-0.710693359375
0.105,-3.993896484375,3.693603515625,-0.350341796875
0.1055,-3.993896484375,2.812744140625,0.650634765625
0.106,-4.194091796875,2.372314453125,1.411376953125
0.1065,-4.154052734375,1.571533203125,2.212158203125
0.107,-3.993896484375,0.930908203125,2.772705078125
0.1075,-3.553466796875,0.130126953125,3.133056640625
0.108,-3.393310546875,-0.550537109375,3.653564453125
0.1085,-2.552490234375,-1.551513671875,3.813720703125
0.109,-2.031982421875,-2.312255859375,4.093994140625
0.1095,-1.111083984375,-3.233154296875,4.013916015625
0.11,-0.230224609375,-3.713623046875,3.653564453125
0.1105,0.570556640625,-4.234130859375,3.373291015625
0.111,1.331298828125,-4.554443359375,2.852783203125
0.1115,2.252197265625,-4.834716796875,2.172119140625
0.112,2.732666015625,-4.874755859375,1.571533203125
0.1125,3.373291015625,-4.834716796875,0.890869140625
0.113,3.573486328125,-4.234130859375,-0.150146484375
0.1135,3.933837890625,-4.033935546875,-0.790771484375
0.114,3.973876953125,-2.912841796875,-1.951904296875
0.1145,3.973876953125,-2.312255859375,-2.712646484375
0.115,3.813720703125,-1.431396484375,-3.393310546875
0.1155,3.493408203125,-0.590576171875,-3.993896484375
0.116,2.852783203125,0.290283203125,-4.194091796875
0.1165,2.452392578125,1.091064453125,-4.594482421875
0.117,1.411376953125,2.252197265625,-4.754638671875
0.1175,0.730712890625,2.932861328125,-4.754638671875
0.118,-0.310302734375,3.693603515625,-4.514404296875
0.1185,-1.191162109375,4.053955078125,-3.913818359375
0.119,-1.791748046875,4.334228515625,-3.553466796875
0.1195,-2.712646484375,4.534423828125,-2.752685546875
0.12,-3.393310546875,4.614501953125,-2.031982421875
0.1205,-3.793701171875,4.414306640625,-1.391357421875
0.121,-4.194091796875,4.134033203125,-0.630615234375
0.1215,-4.194091796875,3.453369140625,0.170166015625
0.122,-4.394287109375,3.133056640625,0.810791015625
0.1225,-4.354248046875,2.011962890625,1.971923828125
0.123,-4.234130859375,1.531494140625,2.492431640625
0.1235,-3.953857421875,0.610595703125,3.093017578125
0.124,-3.553466796875,-0.150146484375,3.453369140625
0.1245,-3.072998046875,-0.910888671875,3.733642578125
0.125,-2.552490234375,-1.631591796875,3.933837890625
0.1255,-1.711669921875,-2.632568359375,4.134033203125
0.126,-1.031005859375,-3.193115234375,3.973876953125
0.1265,-0.150146484375,-3.913818359375,3.773681640625
0.127,0.690673828125,-4.194091796875,3.253173828125
0.1275,1.251220703125,-4.634521484375,3.012939453125
0.128,2.172119140625,-4.794677734375,2.212158203125
0.1285,2.772705078125,-4.954833984375,1.691650390625
0.129,3.173095703125,-4.794677734375,0.970947265625
0.1295,3.653564453125,-4.554443359375,0.250244140625
0.13,3.773681640625,-3.913818359375,-0.630615234375
0.1305,3.973876953125,-3.553466796875,-1.311279296875
0.131,4.013916015625,-2.512451171875,-2.512451171875
0.1315,3.973876953125,-1.991943359375,-3.032958984375
0.132,3.693603515625,-0.990966796875,-3.793701171875
0.1325,3.253173828125,-0.190185546875,-4.194091796875
0.133,2.772705078125,0.690673828125,-4.554443359375
0.1335,2.052001953125,1.651611328125,-4.834716796875
0.134,1.211181640625,2.772705078125,-5.074951171875
0.1345,0.370361328125,3.373291015625,-4.794677734375
0.135,-0.710693359375,4.134033203125,-4.514404296875
0.1355,-1.511474609375,4.454345703125,-3.913818359375
0.136,-2.272216796875,4.774658203125,-3.513427734375
0.1365,-3.353271484375,4.974853515625,-2.552490234375
0.137,-4.033935546875,4.974853515625,-1.791748046875
0.1375,-4.354248046875,4.494384765625,-0.910888671875
0.138,-4.754638671875,4.294189453125,-0.150146484375
0.1385,-4.674560546875,3.413330078125,0.890869140625
0.139,-4.834716796875,2.732666015625,1.771728515625
0.1395,-4.834716796875,1.571533203125,3.012939453125
0.14,-4.434326171875,0.730712890625,3.453369140625
0.1405,-3.913818359375,-0.310302734375,3.973876953125
0.141,-3.353271484375,-1.111083984375,4.214111328125
0.1415,-2.712646484375,-1.911865234375,4.414306640625
0.142,-1.791748046875,-2.872802734375,4.494384765625
0.1425,-0.830810546875,-3.993896484375,4.534423828125
0.143,0.250244140625,-4.314208984375,3.853759765625
0.1435,0.970947265625,-4.874755859375,3.613525390625
0.144,1.691650390625,-4.954833984375,2.892822265625
0.1445,2.292236328125,-5.114990234375,2.332275390625
0.145,3.293212890625,-5.235107421875,1.331298828125
0.1455,3.773681640625,-5.074951171875,0.610595703125
0.146,3.933837890625,-4.394287109375,-0.270263671875
0.1465,4.134033203125,-4.154052734375,-0.870849609375
0.147,4.053955078125,-3.273193359375,-1.671630859375
0.1475,4.013916015625,-2.632568359375,-2.432373046875
0.148,4.013916015625,-1.671630859375,-3.433349609375
0.1485,3.573486328125,-0.990966796875,-3.713623046875
0.149,3.333251953125,-0.150146484375,-4.314208984375
0.1495,2.692626953125,0.650634765625,-4.474365234375
0.15,2.252197265625,1.411376953125,-4.794677734375
0.1505,1.331298828125,2.412353515625,-4.834716796875
0.151,0.610595703125,3.253173828125,-4.994873046875
0.1515,-0.470458984375,3.693603515625,-4.354248046875
0.152,-1.151123046875,4.374267578125,-4.314208984375
0.1525,-1.951904296875,4.494384765625,-3.593505859375
0.153,-2.592529296875,4.774658203125,-3.153076171875
0.1535,-3.633544921875,4.974853515625,-2.272216796875
0.154,-4.033935546875,4.774658203125,-1.511474609375
0.1545,-4.434326171875,4.414306640625,-0.670654296875
0.155,-4.714599609375,4.013916015625,0.130126953125
0.1555,-4.754638671875,3.173095703125,1.131103515625
0.156,-4.834716796875,2.412353515625,2.052001953125
0.1565,-4.874755859375,1.451416015625,3.173095703125
0.157,-4.234130859375,0.530517578125,3.493408203125
0.1575,-3.993896484375,-0.390380859375,4.134033203125
0.158,-3.233154296875,-1.271240234375,4.334228515625
0.1585,-2.592529296875,-2.192138671875,4.534423828125
0.159,-1.551513671875,-3.273193359375,4.614501953125
0.1595,-0.630615234375,-4.194091796875,4.534423828125
0.16,0.530517578125,-4.514404296875,3.733642578125
0.1605,1.131103515625,-5.114990234375,3.613525390625
0.161,2.132080078125,-5.155029296875,2.572509765625
0.1615,2.772705078125,-5.275146484375,2.011962890625
0.162,3.773681640625,-5.435302734375,1.010986328125
0.1625,3.973876953125,-4.794677734375,0.130126953125
0.163,4.174072265625,-4.354248046875,-0.630615234375
0.1635,4.214111328125,-3.793701171875,-1.431396484375
0.164,4.174072265625,-2.832763671875,-2.352294921875
0.1645,4.053955078125,-1.991943359375,-3.072998046875
0.165,3.973876953125,-1.111083984375,-3.993896484375
0.1655,3.173095703125,-0.150146484375,-4.154052734375
0.166,3.012939453125,0.530517578125,-4.634521484375
0.1665,2.092041015625,1.371337890625,-4.634521484375
0.167,1.611572265625,2.092041015625,-4.834716796875
0.1675,0.610595703125,3.093017578125,-4.834716796875
0.168,-0.230224609375,3.653564453125,-4.554443359375
0.1685,-1.151123046875,4.013916015625,-3.913818359375
0.169,-1.631591796875,4.334228515625,-3.793701171875
0.1695,-2.472412109375,4.414306640625,-2.952880859375
0.17,-2.992919921875,4.534423828125,-2.552490234375
0.1705,-3.873779296875,4.774658203125,-1.711669921875
0.171,-3.953857421875,4.134033203125,-0.910888671875
0.1715,-4.354248046875,4.053955078125,-0.310302734375
0.172,-4.354248046875,3.333251953125,0.570556640625
0.1725,-4.514404296875,2.732666015625,1.411376953125
0.173,-4.474365234375,1.931884765625,2.252197265625
0.1735,-4.434326171875,1.171142578125,3.012939453125
0.174,-3.793701171875,0.290283203125,3.293212890625
0.1745,-3.713623046875,-0.430419921875,3.893798828125
0.175,-2.872802734375,-1.431396484375,4.013916015625
0.1755,-2.392333984375,-2.192138671875,4.334228515625
0.176,-1.351318359375,-3.273193359375,4.414306640625
0.1765,-0.470458984375,-3.833740234375,4.013916015625
0.177,0.490478515625,-4.434326171875,3.613525390625
0.1775,1.131103515625,-4.834716796875,3.293212890625
0.178,2.092041015625,-5.034912109375,2.452392578125
0.1785,2.692626953125,-5.074951171875,1.931884765625
0.179,3.573486328125,-5.155029296875,1.051025390625
0.1795,3.693603515625,-4.474365234375,0.130126953125
0.18,4.093994140625,-4.354248046875,-0.550537109375
0.1805,4.093994140625,-3.353271484375,-1.631591796875
0.181,4.134033203125,-2.672607421875,-2.472412109375
0.1815,4.013916015625,-1.791748046875,-3.233154296875
0.182,3.773681640625,-0.910888671875,-3.993896484375
0.1825,3.133056640625,0.050048828125,-4.234130859375
0.183,2.852783203125,0.730712890625,-4.674560546875
0.1835,1.771728515625,1.891845703125,-4.754638671875
0.184,1.171142578125,2.572509765625,-4.834716796875
0.1845,0.210205078125,3.533447265625,-4.754638671875
0.185,-0.790771484375,3.853759765625,-4.194091796875
0.1855,-1.471435546875,4.214111328125,-3.833740234375
0.186,-2.272216796875,4.494384765625,-3.193115234375
0.1865,-3.072998046875,4.614501953125,-2.432373046875
0.187,-3.513427734375,4.534423828125,-1.871826171875
0.1875,-4.073974609375,4.454345703125,-1.071044921875
0.188,-4.073974609375,3.693603515625,-0.310302734375
