wavelength,x,y,z
0.0,-20.825317382812,6.2811279296875,13.528198242188
0.0005,-19.544067382812,1.5965576171875,16.931518554688
0.001,-17.341918945312,-3.1680908203125,19.494018554688
0.0015,-15.179809570312,-6.3311767578125,20.454956054688
0.002,-12.056762695312,-9.7745361328125,20.975463867188
0.0025,-9.6143798828125,-12.136840820312,20.975463867188
0.003,-3.6085205078125,-16.220825195312,19.333862304688
0.0035,0.7156982421875,-18.463012695312,17.532104492188
0.004,5.1600341796875,-19.223754882812,15.490112304688
0.0045,8.0428466796875,-21.145629882812,13.368041992188
0.005,11.446166992188,-21.145629882812,10.164916992188
0.0055,13.768432617188,-20.785278320312,8.9637451171875
0.006,17.532104492188,-19.183715820312,2.3973388671875
0.0065,19.974487304688,-16.861450195312,-2.3673095703125
0.007,21.095581054688,-14.779418945312,-5.4503173828125
0.0075,21.576049804688,-11.736450195312,-9.0137939453125
0.008,21.255737304688,-7.6925048828125,-11.496215820312
0.0085,20.294799804688,-4.3292236328125,-15.339965820312
0.009,18.853393554688,-0.3653564453125,-17.662231445312
0.0095,16.531127929688,4.3192138671875,-20.104614257812
0.01,15.369995117188,7.3221435546875,-20.665161132812
0.0105,10.725463867188,10.685424804688,-20.705200195312
0.011,8.0028076171875,13.167846679688,-20.665161132812
0.0115,1.9569091796875,17.051635742188,-18.743286132812
0.012,-1.2862548828125,19.173706054688,-16.621215820312
0.0125,-5.9307861328125,20.535034179688,-14.819458007812
0.013,-9.2540283203125,21.095581054688,-12.337036132812
0.0135,-11.856567382812,20.855346679688,-9.6544189453125
0.014,-15.219848632812,19.974487304688,-5.5704345703125
0.0145,-18.062622070312,18.372924804688,-1.2462158203125
0.015,-19.223754882812,15.930541992188,3.6785888671875
0.0155,-21.145629882812,13.728393554688,6.4412841796875
0.016,-21.385864257812,10.405151367188,9.9246826171875
0.0165,-21.105590820312,7.8426513671875,12.206909179688
0.017,-19.824340820312,2.6776123046875,16.130737304688
0.0175,-17.982543945312,-1.4063720703125,18.332885742188
0.018,-15.980590820312,-5.2100830078125,20.214721679688
0.0185,-13.338012695312,-8.3331298828125,20.775268554688
0.019,-10.214965820312,-11.215942382812,20.615112304688
0.0195,-6.1710205078125,-14.419067382812,19.974487304688
0.02,-1.0059814453125,-17.542114257812,18.172729492188
0.0205,5.1199951171875,-19.744262695312,15.810424804688
0.021,6.5213623046875,-20.585083007812,14.168823242188
0.0215,9.9647216796875,-21.025512695312,11.366088867188
0.022,12.286987304688,-20.785278320312,10.244995117188
0.0225,16.210815429688,-19.423950195312,3.8787841796875
0.023,18.533081054688,-17.702270507812,-0.1651611328125
0.0235,20.655151367188,-15.540161132812,-4.3692626953125
0.024,20.975463867188,-11.536254882812,-7.3721923828125
0.0245,21.055541992188,-9.8946533203125,-10.375122070312
0.025,20.575073242188,-6.4512939453125,-13.338012695312
0.0255,19.333862304688,-1.8868408203125,-16.701293945312
0.026,17.091674804688,2.7176513671875,-18.983520507812
0.0265,15.129760742188,5.8006591796875,-20.144653320312
0.027,12.126831054688,9.2440185546875,-20.665161132812
0.0275,9.1639404296875,11.806518554688,-20.464965820312
0.028,3.9989013671875,15.530151367188,-19.183715820312
0.0285,-0.5255126953125,18.052612304688,-17.462036132812
0.029,-5.0098876953125,20.174682617188,-15.299926757812
0.0295,-7.7725830078125,20.575073242188,-13.177856445312
0.03,-10.895629882812,20.935424804688,-10.575317382812
0.0305,-13.738403320312,20.454956054688,-7.4522705078125
0.031,-17.301879882812,18.853393554688,-2.4473876953125
0.0315,-19.584106445312,16.691284179688,2.0369873046875
0.032,-21.145629882812,14.769409179688,5.4002685546875
0.0325,-21.425903320312,11.566284179688,8.8035888671875
0.033,-21.305786132812,8.7235107421875,12.807495117188
0.0335,-20.424926757812,4.3192138671875,15.049682617188
0.034,-19.063598632812,0.2352294921875,17.812377929688
0.0345,-16.621215820312,-4.4493408203125,20.134643554688
0.035,-14.258911132812,-7.3721923828125,20.695190429688
0.0355,-11.255981445312,-10.615356445312,21.095581054688
0.036,-7.7325439453125,-13.498168945312,20.615112304688
0.0365,-2.0469970703125,-17.101684570312,18.693237304688
0.037,2.3973388671875,-19.263793945312,16.731323242188
0.0375,6.2010498046875,-21.025512695312,14.929565429688
0.038,9.4041748046875,-21.145629882812,12.086791992188
0.0385,11.926635742188,-21.185668945312,9.7645263671875
0.039,15.570190429688,-20.344848632812,5.4403076171875
0.0395,18.412963867188,-18.583129882812,0.9559326171875
0.04,20.615112304688,-16.100708007812,-3.7286376953125
0.0405,21.455932617188,-13.938598632812,-6.7315673828125
0.041,21.616088867188,-10.655395507812,-10.134887695312
0.0415,21.135620117188,-7.5323486328125,-12.897583007812
0.042,19.854370117188,-2.7276611328125,-16.380981445312
0.0425,18.092651367188,1.4364013671875,-18.703247070312
0.043,15.810424804688,5.4803466796875,-20.665161132812
0.0435,12.767456054688,8.6434326171875,-20.665161132812
0.044,10.285034179688,11.245971679688,-20.985473632812
0.0445,5.5604248046875,15.009643554688,-20.144653320312
0.045,0.4754638671875,17.852416992188,-18.102661132812
0.0455,-4.1290283203125,19.854370117188,-15.820434570312
0.046,-7.1719970703125,21.015502929688,-14.138793945312
0.0465,-10.575317382812,21.095581054688,-11.055786132812
0.047,-12.857543945312,20.775268554688,-8.6134033203125
0.0475,-15.380004882812,19.494018554688,-3.7286376953125
0.048,-19.103637695312,17.612182617188,0.5955810546875
0.0485,-21.025512695312,15.329956054688,4.7596435546875
0.049,-21.305786132812,12.487182617188,7.8026123046875
0.0495,-21.505981445312,9.8446044921875,10.565307617188
0.05,-20.865356445312,5.8807373046875,14.048706054688
0.0505,-19.383911132812,1.3963623046875,17.011596679688
0.051,-17.181762695312,-2.9678955078125,19.133666992188
0.0515,-15.420043945312,-6.3311767578125,20.775268554688
0.052,-11.896606445312,-9.6544189453125,20.615112304688
0.0525,-9.3341064453125,-12.016723632812,20.615112304688
0.053,-3.9688720703125,-15.900512695312,19.333862304688
0.0535,0.7156982421875,-18.342895507812,17.411987304688
0.054,4.9598388671875,-20.184692382812,15.209838867188
0.0545,7.8426513671875,-20.785278320312,13.127807617188
0.055,10.805541992188,-21.105590820312,10.725463867188
0.0555,13.808471679688,-20.384887695312,7.1619873046875
0.056,17.011596679688,-18.903442382812,3.8387451171875
0.0565,19.373901367188,-16.821411132812,-1.8468017578125
0.057,20.895385742188,-14.939575195312,-5.2100830078125
0.0575,20.815307617188,-11.656372070312,-8.4932861328125
0.058,20.975463867188,-9.2139892578125,-10.895629882812
0.0585,20.094604492188,-4.5294189453125,-14.739379882812
0.059,18.653198242188,-0.4854736328125,-17.381958007812
0.0595,16.250854492188,5.1199951171875,-19.263793945312
0.06,14.168823242188,6.8817138671875,-20.264770507812
0.0605,11.165893554688,9.9647216796875,-19.223754882812
0.061,7.5223388671875,12.967651367188,-20.024536132812
0.0615,2.4774169921875,16.290893554688,-18.463012695312
0.062,-2.1671142578125,18.693237304688,-16.541137695312
0.0625,-5.7305908203125,20.294799804688,-14.819458007812
0.063,-8.8936767578125,20.454956054688,-11.976684570312
0.0635,-11.095825195312,20.775268554688,-10.295043945312
0.064,-15.099731445312,19.734252929688,-5.4503173828125
0.0645,-17.742309570312,18.052612304688,-1.1661376953125
0.065,-19.904418945312,15.810424804688,3.1580810546875
0.0655,-21.025512695312,13.768432617188,6.2811279296875
0.066,-20.945434570312,10.525268554688,9.4442138671875
0.0665,-20.785278320312,8.9637451171875,12.126831054688
0.067,-19.624145507812,2.9979248046875,15.650268554688
0.0675,-17.982543945312,-0.0050048828125,18.252807617188
0.068,-15.780395507812,-3.8487548828125,19.934448242188
0.0685,-12.897583007812,-8.2530517578125,20.334838867188
0.069,-10.775512695312,-10.775512695312,20.775268554688
0.0695,-5.4503173828125,-14.659301757812,19.694213867188
0.07,-0.8458251953125,-17.341918945312,17.852416992188
0.0705,3.6785888671875,-19.544067382812,15.730346679688
0.071,6.7615966796875,-20.785278320312,14.168823242188
0.0715,10.204956054688,-20.705200195312,10.845581054688
0.072,12.246948242188,-20.625122070312,8.9237060546875
0.0725,16.290893554688,-19.423950195312,5.1199951171875
0.073,18.813354492188,-17.462036132812,-0.6456298828125
0.0735,20.334838867188,-15.420043945312,-4.2891845703125
0.074,21.015502929688,-12.577270507812,-7.6124267578125
0.0745,20.975463867188,-10.094848632812,-10.094848632812
0.075,20.334838867188,-5.8106689453125,-13.738403320312
0.0755,19.013549804688,-1.6866455078125,-16.541137695312
0.076,16.931518554688,2.7977294921875,-18.943481445312
0.0765,15.009643554688,6.0809326171875,-20.384887695312
0.077,11.366088867188,9.4442138671875,-20.144653320312
0.0775,9.4041748046875,11.606323242188,-19.223754882812
0.078,3.4383544921875,15.890502929688,-18.943481445312
0.0785,-1.0860595703125,18.172729492188,-17.021606445312
0.079,-4.9298095703125,19.814331054688,-15.059692382812
0.0795,-8.0128173828125,20.735229492188,-13.097778320312
0.08,-10.895629882812,20.655151367188,-10.335083007812
0.0805,-13.778442382812,19.974487304688,-6.9718017578125
0.081,-17.061645507812,18.613159179688,-2.4473876953125
0.0815,-19.584106445312,16.370971679688,2.2371826171875
0.082,-20.745239257812,14.449096679688,5.3201904296875
0.0825,-20.865356445312,11.165893554688,8.7635498046875
0.083,-20.905395507812,9.1639404296875,10.765502929688
0.0835,-19.984497070312,4.0789794921875,14.969604492188
0.084,-18.463012695312,0.1151123046875,17.371948242188
0.0845,-16.220825195312,-4.2091064453125,19.253784179688
0.085,-14.258911132812,-7.2120361328125,20.535034179688
0.0855,-10.775512695312,-10.335083007812,20.294799804688
0.086,-7.7325439453125,-12.977661132812,19.974487304688
0.0865,-2.2872314453125,-16.621215820312,18.412963867188
0.087,3.8387451171875,-18.983520507812,16.290893554688
0.0875,5.6805419921875,-20.184692382812,14.569213867188
0.088,9.0037841796875,-20.665161132812,11.926635742188
0.0885,11.165893554688,-20.785278320312,10.084838867188
0.089,15.089721679688,-19.664184570312,6.4012451171875
0.0895,17.612182617188,-18.062622070312,1.0760498046875
0.09,19.854370117188,-15.820434570312,-3.2481689453125
0.0905,20.775268554688,-13.738403320312,-6.2510986328125
0.091,20.535034179688,-8.9737548828125,-9.4942626953125
0.0915,20.414916992188,-7.8927001953125,-11.736450195312
0.092,19.333862304688,-3.0079345703125,-15.580200195312
0.0925,17.532104492188,1.3563232421875,-18.022583007812
0.093,15.570190429688,4.9197998046875,-19.423950195312
0.0935,12.767456054688,8.0828857421875,-20.184692382812
0.094,10.204956054688,10.565307617188,-20.224731445312
0.0945,5.2401123046875,14.369018554688,-17.942504882812
0.095,0.8758544921875,16.971557617188,-17.662231445312
0.0955,-3.8087158203125,19.253784179688,-15.540161132812
0.096,-6.5714111328125,20.174682617188,-13.858520507812
0.0965,-10.014770507812,20.214721679688,-10.695434570312
0.097,-11.896606445312,20.214721679688,-7.6925048828125
0.0975,-16.020629882812,18.853393554688,-3.7286376953125
0.098,-18.382934570312,16.931518554688,0.6356201171875
0.0985,-19.904418945312,14.929565429688,4.0789794921875
0.099,-20.665161132812,12.367065429688,7.3221435546875
0.0995,-20.424926757812,9.6043701171875,9.8045654296875
0.1,-19.904418945312,5.8006591796875,13.167846679688
0.1005,-18.743286132812,1.6766357421875,16.130737304688
0.101,-16.701293945312,-2.8878173828125,18.613159179688
0.1015,-14.739379882812,-5.8106689453125,19.694213867188
0.102,-10.255004882812,-9.1739501953125,19.854370117188
0.1025,-9.5343017578125,-11.255981445312,20.094604492188
0.103,-3.5284423828125,-15.460083007812,18.493041992188
0.1035,0.7557373046875,-17.622192382812,17.932495117188
0.104,4.4793701171875,-19.383911132812,14.849487304688
0.1045,7.4822998046875,-20.224731445312,12.927612304688
0.105,10.365112304688,-20.104614257812,10.164916992188
0.1055,12.967651367188,-19.704223632812,7.1619873046875
0.106,16.330932617188,-18.302856445312,2.6776123046875
0.1065,18.773315429688,-16.060668945312,-2.0069580078125
0.107,19.694213867188,-14.218872070312,-4.7296142578125
0.1075,20.094604492188,-11.215942382812,-8.0528564453125
0.108,19.974487304688,-9.0137939453125,-10.134887695312
0.1085,19.053588867188,-4.2091064453125,-12.817504882812
0.109,17.652221679688,-0.5255126953125,-16.380981445312
0.1095,15.690307617188,3.5584716796875,-18.463012695312
0.11,13.568237304688,6.4813232421875,-19.383911132812
0.1105,10.445190429688,9.4442138671875,-19.263793945312
0.111,8.9637451171875,12.006713867188,-17.942504882812
0.1115,2.2772216796875,15.650268554688,-17.622192382812
0.112,-2.2872314453125,17.812377929688,-15.540161132812
0.1125,-5.0899658203125,18.973510742188,-14.138793945312
0.113,-8.2930908203125,19.574096679688,-11.776489257812
0.1135,-10.495239257812,19.534057617188,-9.7344970703125
0.114,-12.817504882812,18.613159179688,-5.2901611328125
0.1145,-16.581176757812,17.251831054688,-1.5264892578125
0.115,-18.863403320312,15.129760742188,2.8778076171875
0.1155,-19.544067382812,13.087768554688,5.5203857421875
0.116,-19.664184570312,10.044799804688,8.7235107421875
0.1165,-19.584106445312,7.8026123046875,10.805541992188
0.117,-18.583129882812,2.9578857421875,14.689331054688
0.1175,-16.781372070312,-1.1260986328125,16.931518554688
0.118,-15.059692382812,-4.3292236328125,18.493041992188
0.1185,-12.657348632812,-7.4522705078125,19.293823242188
0.119,-10.054809570312,-9.8946533203125,20.494995117188
0.1195,-5.6505126953125,-13.257934570312,18.412963867188
0.12,-0.0050048828125,-16.060668945312,17.011596679688
0.1205,3.3582763671875,-18.382934570312,14.929565429688
0.121,5.8006591796875,-19.143676757812,13.408081054688
0.1215,9.0438232421875,-19.584106445312,10.805541992188
0.122,11.165893554688,-19.544067382812,8.8836669921875
0.1225,15.049682617188,-18.262817382812,5.1199951171875
0.123,17.291870117188,-16.581176757812,1.2762451171875
0.1235,19.053588867188,-14.779418945312,-3.5684814453125
0.124,19.574096679688,-12.256958007812,-6.5714111328125
0.1245,19.534057617188,-9.6143798828125,-9.2139892578125
0.125,19.173706054688,-6.1309814453125,-12.256958007812
0.1255,18.172729492188,-2.0069580078125,-15.420043945312
0.126,16.050659179688,2.4774169921875,-17.822387695312
0.1265,14.208862304688,5.2401123046875,-18.743286132812
0.127,11.486206054688,8.4832763671875,-19.383911132812
0.1275,9.0037841796875,10.885620117188,-19.343872070312
0.128,3.5584716796875,14.889526367188,-17.782348632812
0.1285,-0.5255126953125,16.931518554688,-16.380981445312
0.129,-4.4893798828125,18.933471679688,-14.619262695312
0.1295,-7.2921142578125,19.494018554688,-12.657348632812
0.13,-10.094848632812,19.734252929688,-8.9737548828125
0.1305,-12.897583007812,19.373901367188,-7.2120361328125
0.131,-16.300903320312,17.972534179688,-1.2862548828125
0.1315,-18.623168945312,15.850463867188,1.9569091796875
0.132,-19.784301757812,15.369995117188,4.8397216796875
0.1325,-20.224731445312,11.165893554688,8.1629638671875
0.133,-20.104614257812,8.5233154296875,10.645385742188
0.1335,-17.942504882812,3.9588623046875,14.328979492188
0.134,-17.982543945312,0.2352294921875,16.771362304688
0.1345,-15.860473632812,-4.1690673828125,19.053588867188
0.135,-13.538208007812,-6.9718017578125,19.654174804688
0.1355,-10.775512695312,-9.9346923828125,19.974487304688
0.136,-7.4122314453125,-12.857543945312,19.694213867188
0.1365,-1.8468017578125,-16.380981445312,17.812377929688
0.137,2.5174560546875,-18.503051757812,15.850463867188
0.1375,5.6405029296875,-19.984497070312,14.369018554688
0.138,8.8436279296875,-20.304809570312,11.766479492188
0.1385,11.286010742188,-20.224731445312,9.4041748046875
0.139,14.889526367188,-19.303833007812,5.0799560546875
0.1395,17.532104492188,-17.822387695312,0.9959716796875
0.14,19.814331054688,-15.500122070312,-3.5684814453125
0.1405,20.334838867188,-13.217895507812,-6.2911376953125
0.141,20.575073242188,-10.295043945312,-9.4942626953125
0.1415,20.214721679688,-7.1719970703125,-12.256958007812
0.142,19.013549804688,-2.5274658203125,-15.700317382812
0.1425,17.211791992188,1.5164794921875,-17.902465820312
0.143,15.410034179688,5.1600341796875,-19.624145507812
0.1435,12.327026367188,8.2430419921875,-19.944458007812
0.144,9.7645263671875,10.845581054688,-20.024536132812
0.1445,5.2000732421875,14.409057617188,-19.263793945312
0.145,0.4754638671875,17.211791992188,-17.502075195312
0.1455,-4.1290283203125,20.494995117188,-15.299926757812
0.146,-6.7716064453125,20.134643554688,-13.618286132812
0.1465,-10.054809570312,20.454956054688,-10.935668945312
0.147,-12.577270507812,20.054565429688,-8.1729736328125
0.1475,-16.180786132812,18.773315429688,-3.4083251953125
0.148,-18.583129882812,16.971557617188,0.7557373046875
0.1485,-19.223754882812,14.969604492188,4.5994873046875
0.149,-20.665161132812,12.086791992188,8.9637451171875
0.1495,-20.825317382812,9.5242919921875,10.365112304688
0.15,-20.224731445312,5.4403076171875,13.808471679688
0.1505,-18.943481445312,1.1561279296875,16.811401367188
0.151,-16.581176757812,-3.2481689453125,18.893432617188
0.1515,-14.819458007812,-6.2911376953125,20.174682617188
0.152,-11.576293945312,-9.6143798828125,20.374877929688
0.1525,-8.6934814453125,-12.216918945312,20.174682617188
0.153,-3.3282470703125,-15.900512695312,18.693237304688
0.1535,1.1160888671875,-18.302856445312,16.931518554688
0.154,5.2000732421875,-20.064575195312,14.889526367188
0.1545,8.0428466796875,-20.424926757812,12.567260742188
0.155,10.765502929688,-20.785278320312,10.445190429688
0.1555,15.369995117188,-20.024536132812,6.5213623046875
0.156,17.171752929688,-18.463012695312,2.0369873046875
0.1565,19.413940429688,-16.300903320312,-2.3673095703125
0.157,20.775268554688,-14.419067382812,-5.6104736328125
0.1575,20.775268554688,-11.095825195312,-8.8536376953125
0.158,20.655151367188,-8.4932861328125,-11.416137695312
0.1585,19.694213867188,-3.8887939453125,-15.019653320312
0.159,18.292846679688,0.2352294921875,-17.662231445312
0.1595,15.890502929688,4.4393310546875,-19.544067382812
0.16,13.448120117188,7.3621826171875,-20.144653320312
0.1605,10.845581054688,11.526245117188,-19.223754882812
0.161,6.6815185546875,13.568237304688,-19.864379882812
0.1615,1.5965576171875,16.691284179688,-18.142700195312
0.162,-2.8878173828125,18.973510742188,-16.140747070312
0.1625,-6.2510986328125,21.776245117188,-14.499145507812
0.163,-9.5343017578125,21.776245117188,-11.456176757812
0.1635,-11.616333007812,20.615112304688,-9.6544189453125
0.164,-15.660278320312,19.574096679688,-4.7696533203125
0.1645,-18.262817382812,17.812377929688,-0.5255126953125
0.165,-20.224731445312,15.490112304688,5.1199951171875
0.1655,-21.105590820312,13.207885742188,6.9617919921875
0.166,-21.105590820312,10.164916992188,9.9647216796875
0.1665,-20.785278320312,6.8416748046875,12.927612304688
0.167,-19.463989257812,2.2371826171875,16.250854492188
0.1675,-17.662231445312,-2.0069580078125,18.693237304688
0.168,-15.620239257812,-5.7305908203125,20.414916992188
0.1685,-12.337036132812,-7.6925048828125,20.414916992188
0.169,-8.9737548828125,-11.296020507812,20.815307617188
0.1695,-4.7696533203125,-15.460083007812,19.574096679688
0.17,1.2762451171875,-16.661254882812,17.652221679688
0.1705,4.3192138671875,-19.864379882812,15.490112304688
0.171,7.3621826171875,-21.025512695312,13.808471679688
0.1715,10.765502929688,-20.905395507812,10.605346679688
0.172,12.967651367188,-20.545043945312,8.1629638671875
0.1725,16.811401367188,-19.303833007812,3.1981201171875
0.173,19.333862304688,-17.261840820312,-1.3262939453125
0.1735,20.815307617188,-15.099731445312,-4.8497314453125
0.174,21.095581054688,-12.096801757812,-8.2130126953125
0.1745,21.175659179688,-9.7745361328125,-10.575317382812
0.175,20.414916992188,-3.8487548828125,-14.419067382812
0.1755,18.893432617188,-1.0059814453125,-17.101684570312
0.176,16.691284179688,3.3582763671875,-17.942504882812
0.1765,14.809448242188,6.5614013671875,-20.665161132812
0.177,11.005737304688,9.9246826171875,-20.344848632812
0.1775,8.6434326171875,12.166870117188,-20.384887695312
0.178,2.9979248046875,16.290893554688,-18.983520507812
