wavelength,x,y,z
0.0,-0.350341796875,-5.795654296875,4.134033203125
0.0005,-1.191162109375,-5.835693359375,4.854736328125
0.001,-2.112060546875,-5.635498046875,5.855712890625
0.0015,-3.393310546875,-4.354248046875,6.015869140625
0.002,-4.194091796875,-3.032958984375,5.815673828125
0.0025,-4.754638671875,-2.031982421875,5.655517578125
0.003,-5.235107421875,-1.351318359375,5.535400390625
0.0035,-5.475341796875,-0.350341796875,5.415283203125
0.004,-5.635498046875,0.770751953125,4.734619140625
0.0045,-5.435302734375,1.771728515625,3.853759765625
0.005,-4.914794921875,2.692626953125,2.532470703125
0.0055,-4.594482421875,3.413330078125,1.651611328125
0.006,-4.314208984375,4.134033203125,0.770751953125
0.0065,-4.033935546875,4.814697265625,-0.270263671875
0.007,-2.872802734375,5.054931640625,-1.311279296875
0.0075,-1.631591796875,5.094970703125,-2.392333984375
0.008,-0.750732421875,5.054931640625,-3.353271484375
0.0085,0.010009765625,5.054931640625,-4.194091796875
0.009,0.970947265625,4.974853515625,-5.155029296875
0.0095,2.052001953125,4.334228515625,-5.835693359375
0.01,3.012939453125,3.453369140625,-6.035888671875
0.0105,3.813720703125,2.092041015625,-5.715576171875
0.011,4.174072265625,1.171142578125,-5.595458984375
0.0115,4.814697265625,0.530517578125,-5.635498046875
0.012,5.215087890625,-0.310302734375,-5.435302734375
0.0125,5.054931640625,-1.551513671875,-4.514404296875
0.013,4.774658203125,-2.552490234375,-3.473388671875
0.0135,4.334228515625,-3.353271484375,-2.472412109375
0.014,4.134033203125,-4.154052734375,-1.631591796875
0.0145,3.853759765625,-4.874755859375,-0.830810546875
0.015,3.293212890625,-5.435302734375,0.530517578125
0.0155,2.372314453125,-5.755615234375,1.331298828125
0.016,1.131103515625,-5.595458984375,2.532470703125
0.0165,0.410400390625,-5.715576171875,3.373291015625
0.017,-0.510498046875,-5.795654296875,4.294189453125
0.0175,-1.431396484375,-5.875732421875,5.255126953125
0.018,-2.712646484375,-4.674560546875,5.615478515625
0.0185,-3.593505859375,-3.673583984375,5.735595703125
0.019,-4.274169921875,-2.432373046875,5.695556640625
0.0195,-4.674560546875,-1.711669921875,5.415283203125
0.02,-5.235107421875,-0.910888671875,5.415283203125
0.0205,-5.595458984375,0.090087890625,5.175048828125
0.021,-5.435302734375,1.131103515625,4.214111328125
0.0215,-4.994873046875,2.212158203125,2.932861328125
0.022,-4.674560546875,2.972900390625,2.052001953125
0.0225,-4.474365234375,3.693603515625,1.131103515625
0.023,-4.234130859375,4.614501953125,0.490478515625
0.0235,-3.193115234375,4.854736328125,-0.910888671875
0.024,-2.232177734375,5.054931640625,-2.112060546875
0.0245,-1.151123046875,4.854736328125,-3.032958984375
0.025,-0.430419921875,5.014892578125,-3.833740234375
0.0255,0.530517578125,4.974853515625,-4.834716796875
0.026,1.531494140625,4.894775390625,-5.755615234375
0.0265,2.692626953125,3.693603515625,-5.915771484375
0.027,3.653564453125,2.412353515625,-5.835693359375
0.0275,4.093994140625,1.371337890625,-5.755615234375
0.028,4.614501953125,0.690673828125,-5.635498046875
0.0285,5.054931640625,-0.270263671875,-5.515380859375
0.029,5.094970703125,-1.351318359375,-4.674560546875
0.0295,4.974853515625,-2.392333984375,-3.833740234375
0.03,4.494384765625,-3.273193359375,-2.592529296875
0.0305,4.174072265625,-4.033935546875,-1.871826171875
0.031,3.973876953125,-4.634521484375,-0.790771484375
0.0315,3.693603515625,-5.435302734375,0.130126953125
0.032,2.412353515625,-5.715576171875,1.411376953125
0.0325,1.251220703125,-5.715576171875,2.492431640625
0.033,0.490478515625,-5.715576171875,3.293212890625
0.0335,-0.430419921875,-5.795654296875,4.134033203125
0.034,-1.391357421875,-5.635498046875,5.135009765625
0.0345,-2.592529296875,-4.914794921875,5.775634765625
0.035,-3.593505859375,-3.913818359375,6.055908203125
0.0355,-4.354248046875,-2.512451171875,5.735595703125
0.036,-4.834716796875,-1.711669921875,5.495361328125
0.0365,-5.195068359375,-0.950927734375,5.415283203125
0.037,-5.675537109375,0.010009765625,5.335205078125
0.0375,-5.475341796875,1.291259765625,4.134033203125
0.038,-5.195068359375,2.252197265625,3.133056640625
0.0385,-4.794677734375,3.012939453125,1.971923828125
0.039,-4.434326171875,3.853759765625,1.331298828125
0.0395,-4.073974609375,4.494384765625,0.450439453125
0.04,-3.393310546875,5.014892578125,-0.870849609375
0.0405,-2.352294921875,5.135009765625,-2.072021484375
0.041,-1.111083984375,4.934814453125,-3.072998046875
0.0415,-0.470458984375,4.974853515625,-3.873779296875
0.042,0.490478515625,5.054931640625,-4.754638671875
0.0425,1.451416015625,5.014892578125,-5.755615234375
0.043,2.812744140625,3.773681640625,-5.955810546875
0.0435,3.693603515625,2.572509765625,-6.196044921875
0.044,4.254150390625,1.531494140625,-5.755615234375
0.0445,4.694580078125,0.730712890625,-5.635498046875
0.045,5.054931640625,-0.270263671875,-5.435302734375
0.0455,5.375244140625,-1.231201171875,-5.114990234375
0.046,5.135009765625,-2.392333984375,-3.993896484375
0.0465,4.614501953125,-3.393310546875,-2.552490234375
0.047,4.254150390625,-4.114013671875,-1.911865234375
0.0475,3.973876953125,-4.754638671875,-0.910888671875
0.048,3.693603515625,-5.515380859375,0.010009765625
0.0485,2.492431640625,-5.835693359375,1.411376953125
0.049,1.411376953125,-5.955810546875,2.532470703125
0.0495,0.330322265625,-5.795654296875,3.413330078125
0.05,-0.430419921875,-5.795654296875,4.294189453125
0.0505,-1.391357421875,-5.675537109375,5.135009765625
0.051,-2.472412109375,-5.355224609375,6.135986328125
0.0515,-3.753662109375,-3.993896484375,6.296142578125
0.052,-4.594482421875,-2.632568359375,5.895751953125
0.0525,-5.034912109375,-1.711669921875,5.735595703125
0.053,-5.395263671875,-0.910888671875,5.575439453125
0.0535,-5.755615234375,0.130126953125,5.295166015625
0.054,-5.755615234375,1.451416015625,4.294189453125
0.0545,-5.555419921875,2.492431640625,3.253173828125
0.055,-4.954833984375,3.413330078125,2.132080078125
0.0555,-4.514404296875,3.973876953125,1.010986328125
0.056,-4.114013671875,4.614501953125,0.210205078125
0.0565,-3.673583984375,5.255126953125,-0.830810546875
0.057,-2.232177734375,5.375244140625,-2.352294921875
0.0575,-0.990966796875,5.215087890625,-3.473388671875
0.058,-0.150146484375,5.175048828125,-4.154052734375
0.0585,0.690673828125,5.135009765625,-4.994873046875
0.059,1.771728515625,4.894775390625,-5.755615234375
0.0595,3.052978515625,3.933837890625,-6.396240234375
0.06,4.053955078125,2.772705078125,-6.556396484375
0.0605,4.734619140625,1.331298828125,-6.115966796875
0.061,5.054931640625,0.490478515625,-5.835693359375
0.0615,5.335205078125,-0.510498046875,-5.555419921875
0.062,5.695556640625,-1.471435546875,-5.315185546875
0.0625,5.415283203125,-2.912841796875,-3.833740234375
0.063,5.014892578125,-3.993896484375,-2.672607421875
0.0635,4.454345703125,-4.674560546875,-1.471435546875
0.064,4.053955078125,-5.275146484375,-0.630615234375
0.0645,3.493408203125,-5.955810546875,0.450439453125
0.065,2.532470703125,-6.396240234375,1.771728515625
0.0655,1.211181640625,-6.436279296875,3.052978515625
0.066,-0.190185546875,-6.035888671875,4.053955078125
0.0665,-0.870849609375,-5.955810546875,4.774658203125
0.067,-1.791748046875,-5.755615234375,5.695556640625
0.0675,-2.872802734375,-5.435302734375,6.496337890625
0.068,-4.394287109375,-3.833740234375,6.696533203125
0.0685,-5.155029296875,-2.592529296875,6.536376953125
0.069,-5.635498046875,-1.351318359375,6.095947265625
0.0695,-5.835693359375,-0.510498046875,5.735595703125
0.07,-6.075927734375,0.610595703125,5.255126953125
0.0705,-6.276123046875,1.811767578125,4.574462890625
0.071,-5.915771484375,3.093017578125,3.213134765625
0.0715,-5.155029296875,4.053955078125,1.651611328125
0.072,-4.634521484375,4.574462890625,0.770751953125
0.0725,-4.073974609375,5.094970703125,-0.270263671875
0.073,-3.553466796875,5.695556640625,-1.231201171875
0.0735,-1.991943359375,5.815673828125,-2.912841796875
0.074,-0.750732421875,5.775634765625,-4.033935546875
0.0745,0.490478515625,5.415283203125,-4.834716796875
0.075,1.131103515625,5.335205078125,-5.435302734375
0.0755,2.212158203125,4.854736328125,-6.316162109375
0.076,3.293212890625,4.334228515625,-7.036865234375
0.0765,4.534423828125,2.732666015625,-7.036865234375
0.077,5.255126953125,1.211181640625,-6.556396484375
0.0775,5.535400390625,0.250244140625,-6.115966796875
0.078,5.735595703125,-0.710693359375,-5.755615234375
0.0785,5.935791015625,-1.751708984375,-5.275146484375
0.079,5.775634765625,-3.233154296875,-3.993896484375
0.0795,5.375244140625,-4.354248046875,-2.712646484375
0.08,4.614501953125,-5.114990234375,-1.351318359375
0.0805,4.093994140625,-5.635498046875,-0.510498046875
0.081,3.493408203125,-6.156005859375,0.610595703125
0.0815,2.812744140625,-6.716552734375,1.611572265625
0.082,1.131103515625,-6.636474609375,3.293212890625
0.0825,-0.310302734375,-6.356201171875,4.334228515625
0.083,-1.111083984375,-6.115966796875,4.974853515625
0.0835,-1.871826171875,-5.915771484375,5.695556640625
0.084,-3.032958984375,-5.435302734375,6.576416015625
0.0845,-4.354248046875,-4.314208984375,7.056884765625
0.085,-5.275146484375,-2.992919921875,6.976806640625
0.0855,-5.875732421875,-1.431396484375,6.336181640625
0.086,-6.075927734375,-0.590576171875,5.935791015625
0.0865,-6.276123046875,0.530517578125,5.495361328125
0.087,-6.476318359375,1.531494140625,5.054931640625
0.0875,-6.115966796875,3.052978515625,3.453369140625
0.088,-5.555419921875,4.053955078125,2.092041015625
0.0885,-4.834716796875,4.614501953125,0.930908203125
0.089,-4.314208984375,5.135009765625,0.050048828125
0.0895,-3.673583984375,5.655517578125,-1.151123046875
0.09,-2.512451171875,6.055908203125,-2.512451171875
0.0905,-1.151123046875,6.015869140625,-3.833740234375
0.091,0.330322265625,5.535400390625,-4.754638671875
0.0915,1.010986328125,5.415283203125,-5.435302734375
0.092,1.891845703125,5.094970703125,-6.115966796875
0.0925,2.932861328125,4.734619140625,-6.996826171875
0.093,4.414306640625,3.052978515625,-7.116943359375
0.0935,5.215087890625,1.731689453125,-6.876708984375
0.094,5.575439453125,0.490478515625,-6.356201171875
0.0945,5.735595703125,-0.470458984375,-5.915771484375
0.095,5.935791015625,-1.471435546875,-5.475341796875
0.0955,6.055908203125,-2.672607421875,-4.714599609375
0.096,5.655517578125,-3.993896484375,-3.233154296875
0.0965,4.894775390625,-5.074951171875,-1.791748046875
0.097,4.294189453125,-5.555419921875,-0.710693359375
0.0975,3.773681640625,-6.115966796875,0.250244140625
0.098,3.213134765625,-6.636474609375,1.251220703125
0.0985,1.611572265625,-6.756591796875,2.932861328125
0.099,0.290283203125,-6.596435546875,4.093994140625
0.0995,-0.910888671875,-6.196044921875,4.894775390625
0.1,-1.591552734375,-6.075927734375,5.575439453125
0.1005,-2.632568359375,-5.715576171875,6.376220703125
0.101,-3.833740234375,-5.074951171875,7.096923828125
0.1015,-5.074951171875,-3.473388671875,7.096923828125
0.102,-5.795654296875,-1.871826171875,6.576416015625
0.1025,-6.115966796875,-0.830810546875,6.176025390625
0.103,-6.276123046875,0.170166015625,5.735595703125
0.1035,-6.476318359375,1.211181640625,5.295166015625
0.104,-6.276123046875,2.692626953125,3.933837890625
0.1045,-5.915771484375,3.733642578125,2.692626953125
0.105,-5.114990234375,4.494384765625,1.291259765625
0.1055,-4.514404296875,5.054931640625,0.290283203125
0.106,-3.873779296875,5.575439453125,-0.750732421875
0.1065,-3.193115234375,6.135986328125,-1.831787109375
0.107,-1.551513671875,6.095947265625,-3.513427734375
0.1075,0.010009765625,5.735595703125,-4.634521484375
0.108,0.810791015625,5.495361328125,-5.275146484375
0.1085,1.571533203125,5.335205078125,-5.955810546875
0.109,2.692626953125,4.814697265625,-6.796630859375
0.1095,4.093994140625,3.653564453125,-7.197021484375
0.11,4.974853515625,2.332275390625,-7.156982421875
0.1105,5.535400390625,0.810791015625,-6.476318359375
0.111,5.735595703125,-0.270263671875,-6.115966796875
0.1115,5.895751953125,-1.151123046875,-5.675537109375
0.112,6.176025390625,-2.152099609375,-5.275146484375
0.1125,5.735595703125,-3.753662109375,-3.593505859375
0.113,5.175048828125,-4.794677734375,-2.232177734375
0.1135,4.494384765625,-5.395263671875,-1.071044921875
0.114,3.973876953125,-5.835693359375,-0.190185546875
0.1145,3.293212890625,-6.396240234375,0.930908203125
0.115,2.212158203125,-6.756591796875,2.332275390625
0.1155,0.810791015625,-6.676513671875,3.653564453125
0.116,-0.630615234375,-6.196044921875,4.534423828125
0.1165,-1.311279296875,-6.075927734375,5.215087890625
0.117,-2.192138671875,-5.795654296875,5.935791015625
0.1175,-3.193115234375,-5.475341796875,6.856689453125
0.118,-4.674560546875,-3.833740234375,6.936767578125
0.1185,-5.435302734375,-2.512451171875,6.696533203125
0.119,-5.835693359375,-1.271240234375,6.135986328125
0.1195,-6.035888671875,-0.390380859375,5.855712890625
0.12,-6.236083984375,0.650634765625,5.375244140625
0.1205,-6.356201171875,1.771728515625,4.654541015625
0.121,-5.955810546875,3.012939453125,3.333251953125
0.1215,-5.235107421875,3.973876953125,1.771728515625
0.122,-4.634521484375,4.574462890625,0.810791015625
0.1225,-4.154052734375,5.094970703125,0.010009765625
0.123,-3.713623046875,5.735595703125,-1.071044921875
0.1235,-2.152099609375,5.815673828125,-2.632568359375
0.124,-0.990966796875,5.735595703125,-3.793701171875
0.1245,0.330322265625,5.375244140625,-4.594482421875
0.125,0.970947265625,5.335205078125,-5.315185546875
0.1255,1.931884765625,5.054931640625,-6.075927734375
0.126,2.932861328125,4.574462890625,-6.836669921875
0.1265,4.174072265625,3.133056640625,-6.916748046875
0.127,4.934814453125,1.571533203125,-6.436279296875
0.1275,5.255126953125,0.610595703125,-6.115966796875
0.128,5.535400390625,-0.350341796875,-5.835693359375
0.1285,5.815673828125,-1.311279296875,-5.555419921875
0.129,5.695556640625,-2.712646484375,-4.354248046875
0.1295,5.375244140625,-3.753662109375,-3.233154296875
0.13,4.654541015625,-4.514404296875,-1.831787109375
0.1305,4.214111328125,-5.195068359375,-0.910888671875
0.131,3.773681640625,-5.755615234375,0.050048828125
0.1315,3.253173828125,-6.396240234375,1.051025390625
0.132,1.771728515625,-6.396240234375,2.532470703125
0.1325,0.330322265625,-6.115966796875,3.693603515625
0.133,-0.590576171875,-5.995849609375,4.454345703125
0.1335,-1.311279296875,-5.955810546875,5.215087890625
0.134,-2.352294921875,-5.675537109375,6.095947265625
0.1345,-3.673583984375,-4.634521484375,6.536376953125
0.135,-4.594482421875,-3.513427734375,6.656494140625
0.1355,-5.275146484375,-1.951904296875,6.095947265625
0.136,-5.635498046875,-1.151123046875,5.815673828125
0.1365,-5.795654296875,-0.270263671875,5.535400390625
0.137,-6.156005859375,0.690673828125,5.295166015625
0.1375,-5.915771484375,2.092041015625,3.853759765625
0.138,-5.395263671875,3.173095703125,2.612548828125
0.1385,-4.834716796875,3.853759765625,1.571533203125
0.139,-4.434326171875,4.494384765625,0.650634765625
0.1395,-3.913818359375,5.094970703125,-0.350341796875
0.14,-3.032958984375,5.495361328125,-1.591552734375
0.1405,-1.871826171875,5.575439453125,-2.792724609375
0.141,-0.510498046875,5.175048828125,-3.833740234375
0.1415,0.290283203125,5.175048828125,-4.514404296875
0.142,1.091064453125,5.094970703125,-5.315185546875
0.1425,1.971923828125,5.014892578125,-6.276123046875
0.143,3.373291015625,3.573486328125,-6.436279296875
0.1435,4.174072265625,2.412353515625,-6.356201171875
0.144,4.694580078125,1.251220703125,-5.955810546875
0.1445,5.054931640625,0.370361328125,-5.755615234375
0.145,5.295166015625,-0.590576171875,-5.515380859375
0.1455,5.495361328125,-1.591552734375,-5.114990234375
0.146,5.295166015625,-2.712646484375,-3.873779296875
0.1465,4.694580078125,-3.713623046875,-2.512451171875
0.147,4.254150390625,-4.394287109375,-1.591552734375
0.1475,3.973876953125,-5.074951171875,-0.790771484375
0.148,3.693603515625,-5.755615234375,0.170166015625
0.1485,2.412353515625,-5.995849609375,1.571533203125
0.149,1.291259765625,-6.035888671875,2.692626953125
0.1495,0.250244140625,-5.795654296875,3.573486328125
0.15,-0.590576171875,-5.875732421875,4.374267578125
0.1505,-1.471435546875,-5.755615234375,5.255126953125
0.151,-2.512451171875,-5.475341796875,6.095947265625
0.1515,-3.713623046875,-4.154052734375,6.256103515625
0.152,-4.514404296875,-2.752685546875,5.935791015625
0.1525,-4.994873046875,-1.871826171875,5.735595703125
0.153,-5.395263671875,-1.031005859375,5.575439453125
0.1535,-5.755615234375,-0.270263671875,5.415283203125
0.154,-5.715576171875,1.131103515625,4.494384765625
0.1545,-5.515380859375,2.172119140625,3.533447265625
0.155,-4.914794921875,3.052978515625,2.252197265625
0.1555,-4.554443359375,3.773681640625,1.371337890625
0.156,-4.194091796875,4.414306640625,0.490478515625
0.1565,-3.873779296875,5.094970703125,-0.510498046875
0.157,-2.592529296875,5.215087890625,-1.831787109375
0.1575,-1.311279296875,5.094970703125,-2.912841796875
0.158,-0.510498046875,5.054931640625,-3.713623046875
0.1585,0.330322265625,5.135009765625,-4.554443359375
0.159,1.251220703125,5.014892578125,-5.435302734375
0.1595,2.452392578125,4.174072265625,-6.035888671875
0.16,3.373291015625,3.213134765625,-6.156005859375
0.1605,4.134033203125,1.811767578125,-5.835693359375
0.161,4.494384765625,1.010986328125,-5.715576171875
0.1615,4.894775390625,0.210205078125,-5.595458984375
0.162,5.335205078125,-0.630615234375,-5.515380859375
0.1625,5.094970703125,-1.911865234375,-4.354248046875
0.163,4.814697265625,-2.872802734375,-3.233154296875
0.1635,4.334228515625,-3.673583984375,-2.232177734375
0.164,4.134033203125,-4.394287109375,-1.391357421875
0.1645,3.813720703125,-5.114990234375,-0.510498046875
0.165,3.133056640625,-5.635498046875,0.610595703125
0.1655,2.092041015625,-5.795654296875,1.771728515625
0.166,0.890869140625,-5.595458984375,2.772705078125
0.1665,0.170166015625,-5.675537109375,3.533447265625
0.167,-0.710693359375,-5.755615234375,4.494384765625
0.1675,-1.591552734375,-5.795654296875,5.455322265625
0.168,-2.912841796875,-4.554443359375,5.775634765625
0.1685,-3.793701171875,-3.553466796875,5.775634765625
0.169,-4.434326171875,-2.432373046875,5.575439453125
0.1695,-4.874755859375,-1.671630859375,5.495361328125
0.17,-5.275146484375,-0.830810546875,5.415283203125
0.1705,-5.595458984375,0.210205078125,5.094970703125
0.171,-5.475341796875,1.251220703125,4.174072265625
0.1715,-4.994873046875,2.292236328125,2.892822265625
0.172,-4.674560546875,3.012939453125,2.052001953125
0.1725,-4.434326171875,3.773681640625,1.211181640625
0.173,-4.274169921875,4.614501953125,0.410400390625
0.1735,-3.193115234375,4.894775390625,-0.990966796875
0.174,-2.192138671875,5.054931640625,-2.112060546875
0.1745,-1.151123046875,4.934814453125,-2.992919921875
0.175,-0.470458984375,5.094970703125,-3.833740234375
0.1755,0.530517578125,5.094970703125,-4.754638671875
0.176,1.531494140625,4.854736328125,-5.715576171875
0.1765,2.692626953125,3.733642578125,-5.915771484375
0.177,3.573486328125,2.412353515625,-5.755615234375
0.1775,4.093994140625,1.531494140625,-5.675537109375
0.178,4.574462890625,0.770751953125,-5.635498046875
0.1785,5.054931640625,0.010009765625,-5.595458984375
0.179,5.094970703125,-1.231201171875,-4.754638671875
0.1795,4.974853515625,-2.272216796875,-3.873779296875
0.18,4.494384765625,-3.193115234375,-2.712646484375
0.1805,4.214111328125,-3.913818359375,-1.871826171875
0.181,3.973876953125,-4.674560546875,-1.031005859375
0.1815,3.733642578125,-5.475341796875,0.010009765625
0.182,2.532470703125,-5.635498046875,1.251220703125
0.1825,1.331298828125,-5.635498046875,2.372314453125
0.183,0.570556640625,-5.715576171875,3.213134765625
0.1835,-0.310302734375,-5.795654296875,4.093994140625
0.184,-1.271240234375,-5.755615234375,5.094970703125
0.1845,-2.552490234375,-4.954833984375,5.735595703125
0.185,-3.553466796875,-3.993896484375,5.895751953125
0.1855,-4.314208984375,-2.712646484375,5.615478515625
0.186,-4.794677734375,-1.791748046875,5.575439453125
0.1865,-5.195068359375,-0.990966796875,5.415283203125
0.187,-5.635498046875,-0.190185546875,5.375244140625
0.1875,-5.475341796875,1.211181640625,4.254150390625
0.188,-5.155029296875,2.252197265625,3.093017578125
