wavelength,x,y,z
0.0,-2.0369873046875,3.5284423828125,-1.6365966796875
0.0005,-2.3572998046875,3.1280517578125,-0.9559326171875
0.001,-2.8377685546875,3.0079345703125,-0.3553466796875
0.0015,-2.9979248046875,2.2872314453125,0.4454345703125
0.002,-3.3182373046875,2.0870361328125,1.0460205078125
0.0025,-3.2381591796875,1.4063720703125,1.6466064453125
0.003,-3.2381591796875,0.9659423828125,2.0870361328125
0.0035,-3.0780029296875,0.3253173828125,2.6075439453125
0.004,-2.8377685546875,-0.3153076171875,2.9678955078125
0.0045,-2.4373779296875,-1.0360107421875,3.2882080078125
0.005,-1.7967529296875,-1.5965576171875,3.2882080078125
0.0055,-1.2362060546875,-2.2371826171875,3.3682861328125
0.006,-0.5155029296875,-2.6375732421875,3.0479736328125
0.0065,0.0050048828125,-3.1180419921875,3.0479736328125
0.007,0.7657470703125,-3.3582763671875,2.4874267578125
0.0075,1.2862548828125,-3.6385498046875,2.3272705078125
0.008,1.7667236328125,-3.5584716796875,1.8067626953125
0.0085,2.2071533203125,-3.5985107421875,1.3663330078125
0.009,2.6075439453125,-3.2381591796875,0.6456298828125
0.0095,3.0079345703125,-2.9979248046875,0.0050048828125
0.01,3.2481689453125,-2.3973388671875,-0.7957763671875
0.0105,3.4483642578125,-1.9969482421875,-1.3162841796875
0.011,3.4884033203125,-1.4364013671875,-1.9569091796875
0.0115,3.3282470703125,-0.8358154296875,-2.3973388671875
0.012,3.3282470703125,-0.2752685546875,-2.9178466796875
0.0125,2.8477783203125,0.4854736328125,-3.2381591796875
0.013,2.4874267578125,1.1260986328125,-3.5584716796875
0.0135,1.7667236328125,1.7667236328125,-3.4783935546875
0.014,1.2462158203125,2.3272705078125,-3.5584716796875
0.0145,0.4854736328125,2.7276611328125,-3.1981201171875
0.015,-0.0350341796875,3.1280517578125,-3.0780029296875
0.0155,-0.8758544921875,3.4083251953125,-2.5574951171875
0.016,-1.3162841796875,3.5284423828125,-2.2772216796875
0.0165,-1.8768310546875,3.4884033203125,-1.7166748046875
0.017,-2.2371826171875,3.2882080078125,-1.1961669921875
0.0175,-2.7176513671875,3.0079345703125,-0.5555419921875
0.018,-2.9178466796875,2.5274658203125,0.2052001953125
0.0185,-3.2381591796875,2.1270751953125,0.9659423828125
0.019,-3.2381591796875,1.5665283203125,1.4464111328125
0.0195,-3.3582763671875,1.1260986328125,2.0469970703125
0.02,-3.0780029296875,0.4053955078125,2.4473876953125
0.0205,-2.9979248046875,-0.1151123046875,2.9678955078125
0.021,-2.3973388671875,-0.9959716796875,3.2081298828125
0.0215,-1.9569091796875,-1.5565185546875,3.3682861328125
0.022,-1.2762451171875,-2.1170654296875,3.2882080078125
0.0225,-0.6356201171875,-2.6375732421875,3.2081298828125
0.023,0.0050048828125,-3.0379638671875,2.9278564453125
0.0235,0.6456298828125,-3.3182373046875,2.6075439453125
0.024,1.3663330078125,-3.5985107421875,2.2471923828125
0.0245,1.7667236328125,-3.5584716796875,1.8468017578125
0.025,2.2872314453125,-3.6785888671875,1.3262939453125
0.0255,2.5274658203125,-3.2781982421875,0.6856689453125
0.026,3.0079345703125,-3.0379638671875,0.1251220703125
0.0265,3.1680908203125,-2.3572998046875,-0.7156982421875
0.027,3.4884033203125,-1.9969482421875,-1.3162841796875
0.0275,3.3282470703125,-1.3963623046875,-1.8768310546875
0.028,3.4083251953125,-0.9959716796875,-2.3172607421875
0.0285,3.1280517578125,-0.2752685546875,-2.7576904296875
0.029,2.9278564453125,0.2852783203125,-3.1580810546875
0.0295,2.4473876953125,1.0460205078125,-3.4783935546875
0.03,1.9268798828125,1.5665283203125,-3.4783935546875
0.0305,1.2862548828125,2.2471923828125,-3.4783935546875
0.031,0.5655517578125,2.6075439453125,-3.1981201171875
0.0315,0.0050048828125,3.0479736328125,-3.1180419921875
0.032,-0.6756591796875,3.2481689453125,-2.5975341796875
0.0325,-1.2762451171875,3.5284423828125,-2.3172607421875
0.033,-1.6365966796875,3.3682861328125,-1.8367919921875
0.0335,-2.1971435546875,3.4483642578125,-1.4764404296875
0.034,-2.4774169921875,3.0479736328125,-0.7156982421875
0.0345,-2.8778076171875,2.8477783203125,-0.1151123046875
0.035,-3.0780029296875,2.1671142578125,0.6856689453125
0.0355,-3.2781982421875,1.9268798828125,1.2462158203125
0.036,-3.2381591796875,1.2862548828125,1.8067626953125
0.0365,-3.1981201171875,0.7657470703125,2.2471923828125
0.037,-3.0379638671875,0.1251220703125,2.7276611328125
0.0375,-2.6776123046875,-0.5955810546875,3.0880126953125
0.038,-2.2772216796875,-1.3162841796875,3.4083251953125
0.0385,-1.5965576171875,-1.8367919921875,3.2882080078125
0.039,-0.9959716796875,-2.4774169921875,3.3682861328125
0.0395,-0.2752685546875,-2.8377685546875,3.0479736328125
0.04,0.2452392578125,-3.2381591796875,2.9278564453125
0.0405,1.0860595703125,-3.5584716796875,2.4073486328125
0.041,1.5665283203125,-3.7186279296875,2.1270751953125
0.0415,2.0069580078125,-3.5985107421875,1.5665283203125
0.042,2.4874267578125,-3.5184326171875,1.1260986328125
0.0425,2.8477783203125,-3.1180419921875,0.3653564453125
0.043,3.1680908203125,-2.7176513671875,-0.3153076171875
0.0435,3.4483642578125,-2.1571044921875,-1.1961669921875
0.044,3.4884033203125,-1.6766357421875,-1.6766357421875
0.0445,3.5284423828125,-1.1160888671875,-2.2772216796875
0.045,3.2481689453125,-0.4754638671875,-2.7176513671875
0.0455,3.1280517578125,0.1251220703125,-3.1981201171875
0.046,2.5675048828125,0.9259033203125,-3.4783935546875
0.0465,2.0870361328125,1.5665283203125,-3.6785888671875
0.047,1.3262939453125,2.1671142578125,-3.4783935546875
0.0475,0.7657470703125,2.6876220703125,-3.5184326171875
0.048,0.0450439453125,3.0079345703125,-3.0780029296875
0.0485,-0.5955810546875,3.3282470703125,-2.8377685546875
0.049,-1.3563232421875,3.5684814453125,-2.2772216796875
0.0495,-1.8367919921875,3.5284423828125,-1.8768310546875
0.05,-2.2772216796875,3.4884033203125,-1.3162841796875
0.0505,-2.6375732421875,3.1680908203125,-0.6756591796875
0.051,-2.9979248046875,2.8077392578125,0.0050048828125
0.0515,-3.1981201171875,2.2471923828125,0.7657470703125
0.052,-3.4783935546875,1.7667236328125,1.5264892578125
0.0525,-3.2781982421875,1.1260986328125,1.9669189453125
0.053,-3.3582763671875,0.6456298828125,2.5274658203125
0.0535,-2.9578857421875,-0.0350341796875,2.8477783203125
0.054,-2.7176513671875,-0.6356201171875,3.2481689453125
0.0545,-2.1170654296875,-1.4764404296875,3.4884033203125
0.055,-1.5164794921875,-2.0770263671875,3.5284423828125
0.0555,-0.7957763671875,-2.6375732421875,3.3282470703125
0.056,-0.1551513671875,-3.0780029296875,3.1680908203125
0.0565,0.5255126953125,-3.3983154296875,2.8077392578125
0.057,1.2462158203125,-3.6785888671875,2.4073486328125
0.0575,1.9268798828125,-3.8787841796875,1.8868408203125
0.058,2.2872314453125,-3.6385498046875,1.3663330078125
0.0585,2.8077392578125,-3.6785888671875,0.8858642578125
0.059,3.0479736328125,-3.1180419921875,0.1651611328125
0.0595,3.4083251953125,-2.7576904296875,-0.5155029296875
0.06,3.5684814453125,-2.0369873046875,-1.3963623046875
0.0605,3.6885986328125,-1.5565185546875,-2.0369873046875
0.061,3.4884033203125,-0.8358154296875,-2.5174560546875
0.0615,3.4884033203125,-0.3553466796875,-2.9578857421875
0.062,3.0479736328125,0.3253173828125,-3.2781982421875
0.0625,2.6876220703125,1.0059814453125,-3.6385498046875
0.063,2.0469970703125,1.8468017578125,-3.8787841796875
0.0635,1.3262939453125,2.3673095703125,-3.6785888671875
0.064,0.6456298828125,2.9278564453125,-3.5584716796875
0.0645,-0.0350341796875,3.2081298828125,-3.1981201171875
0.065,-0.7156982421875,3.5284423828125,-2.8377685546875
0.0655,-1.4764404296875,3.6885986328125,-2.3172607421875
0.066,-2.1571044921875,3.8487548828125,-1.7967529296875
0.0665,-2.4373779296875,3.4884033203125,-1.1561279296875
0.067,-2.9578857421875,3.5284423828125,-0.6756591796875
0.0675,-3.1580810546875,2.8477783203125,0.1251220703125
0.068,-3.4783935546875,2.4874267578125,0.7657470703125
0.0685,-3.5985107421875,1.6866455078125,1.7266845703125
0.069,-3.5584716796875,1.1260986328125,2.2471923828125
0.0695,-3.3582763671875,0.4854736328125,2.6876220703125
0.07,-3.1981201171875,-0.0750732421875,3.1280517578125
0.0705,-2.7576904296875,-0.7957763671875,3.4483642578125
0.071,-2.2772216796875,-1.5565185546875,3.6885986328125
0.0715,-1.5965576171875,-2.3572998046875,3.8487548828125
0.072,-0.7557373046875,-2.8377685546875,3.4884033203125
0.0725,-0.1551513671875,-3.3983154296875,3.4884033203125
0.073,0.6856689453125,-3.7186279296875,2.8878173828125
0.0735,1.3262939453125,-3.9188232421875,2.5274658203125
0.074,2.1270751953125,-3.9989013671875,1.9268798828125
0.0745,2.6876220703125,-3.9989013671875,1.3262939453125
0.075,3.0479736328125,-3.6385498046875,0.6856689453125
0.0755,3.4483642578125,-3.5184326171875,0.1251220703125
0.076,3.6085205078125,-2.7176513671875,-0.7957763671875
0.0765,3.8487548828125,-2.2772216796875,-1.4364013671875
0.077,3.9688720703125,-1.4764404296875,-2.3973388671875
0.0775,3.7286376953125,-0.7957763671875,-2.8377685546875
0.078,3.5684814453125,-0.1551513671875,-3.2781982421875
0.0785,3.1680908203125,0.5255126953125,-3.5985107421875
0.079,2.6876220703125,1.2862548828125,-3.8787841796875
0.0795,2.0469970703125,2.0469970703125,-3.9989013671875
0.08,1.3262939453125,2.7677001953125,-4.0389404296875
0.0805,0.4854736328125,3.1280517578125,-3.5985107421875
0.081,-0.1551513671875,3.6085205078125,-3.5584716796875
0.0815,-1.0760498046875,3.7286376953125,-2.7977294921875
0.082,-1.6365966796875,3.9688720703125,-2.3973388671875
0.0825,-2.4373779296875,3.9688720703125,-1.6766357421875
0.083,-2.8377685546875,3.8087158203125,-1.0760498046875
0.0835,-3.1580810546875,3.4483642578125,-0.4754638671875
0.084,-3.5184326171875,3.1280517578125,0.2052001953125
0.0845,-3.5985107421875,2.3272705078125,1.0460205078125
0.085,-3.7186279296875,1.8067626953125,1.7266845703125
0.0855,-3.7987060546875,1.0860595703125,2.5274658203125
0.086,-3.3983154296875,0.3653564453125,2.8477783203125
0.0865,-3.3582763671875,-0.1151123046875,3.3282470703125
0.087,-2.8377685546875,-0.9158935546875,3.5684814453125
0.0875,-2.3572998046875,-1.5965576171875,3.8087158203125
0.088,-1.5965576171875,-2.3172607421875,3.8487548828125
0.0885,-0.9158935546875,-2.9178466796875,3.7686767578125
0.089,-0.1151123046875,-3.2781982421875,3.3282470703125
0.0895,0.4854736328125,-3.7987060546875,3.1680908203125
0.09,1.3663330078125,-3.8387451171875,2.4874267578125
0.0905,1.9268798828125,-4.0389404296875,2.1270751953125
0.091,2.6075439453125,-4.0789794921875,1.5264892578125
0.0915,2.9678955078125,-3.7586669921875,0.8458251953125
0.092,3.3682861328125,-3.5985107421875,0.2852783203125
0.0925,3.6085205078125,-3.0379638671875,-0.4754638671875
0.093,3.8087158203125,-2.4373779296875,-1.2362060546875
0.0935,3.8887939453125,-1.7967529296875,-1.9569091796875
0.094,3.9288330078125,-1.1561279296875,-2.6375732421875
0.0945,3.5284423828125,-0.3953857421875,-2.9979248046875
0.095,3.5284423828125,0.0450439453125,-3.5584716796875
0.0955,2.8878173828125,0.9259033203125,-3.7586669921875
0.096,2.4874267578125,1.5665283203125,-3.9989013671875
0.0965,1.7266845703125,2.3673095703125,-4.0389404296875
0.097,0.9659423828125,2.8878173828125,-3.8387451171875
0.0975,0.1651611328125,3.3282470703125,-3.5985107421875
0.098,-0.5155029296875,3.7286376953125,-3.2381591796875
0.0985,-1.3963623046875,3.8887939453125,-2.5574951171875
0.099,-1.9569091796875,3.9688720703125,-2.1571044921875
0.0995,-2.6375732421875,4.0089111328125,-1.5164794921875
0.1,-2.9178466796875,3.6085205078125,-0.7957763671875
0.1005,-3.3983154296875,3.4884033203125,-0.2352294921875
0.101,-3.5584716796875,2.6876220703125,0.6456298828125
0.1015,-3.8387451171875,2.1671142578125,1.4063720703125
0.102,-3.8387451171875,1.4063720703125,2.1671142578125
0.1025,-3.7987060546875,0.7657470703125,2.8077392578125
0.103,-3.3983154296875,0.0450439453125,3.1680908203125
0.1035,-3.2781982421875,-0.5155029296875,3.6485595703125
0.104,-2.5174560546875,-1.4764404296875,3.8487548828125
0.1045,-1.9969482421875,-2.1170654296875,3.9688720703125
0.105,-1.1561279296875,-2.9178466796875,3.9288330078125
0.1055,-0.3153076171875,-3.3983154296875,3.5684814453125
0.106,0.3253173828125,-3.7586669921875,3.3282470703125
0.1065,1.2061767578125,-3.9989013671875,2.7677001953125
0.107,2.0069580078125,-4.1590576171875,2.0870361328125
0.1075,2.5274658203125,-4.1190185546875,1.6065673828125
0.108,3.1680908203125,-4.0789794921875,1.0059814453125
0.1085,3.3682861328125,-3.5584716796875,0.2852783203125
0.109,3.8087158203125,-3.3582763671875,-0.3153076171875
0.1095,3.8887939453125,-2.4373779296875,-1.3563232421875
0.11,4.0489501953125,-1.9168701171875,-1.9969482421875
0.1105,3.9688720703125,-1.1160888671875,-2.7176513671875
0.111,3.7686767578125,-0.4754638671875,-3.1981201171875
0.1115,3.3682861328125,0.2052001953125,-3.5184326171875
0.112,3.1280517578125,0.8458251953125,-3.8787841796875
0.1125,2.3673095703125,1.7667236328125,-4.0789794921875
0.113,1.8067626953125,2.2872314453125,-4.0789794921875
0.1135,0.9659423828125,3.0079345703125,-4.0389404296875
0.114,0.1251220703125,3.3682861328125,-3.5584716796875
0.1145,-0.3953857421875,3.8087158203125,-3.3582763671875
0.115,-1.3162841796875,3.8887939453125,-2.5975341796875
0.1155,-1.9969482421875,4.0889892578125,-2.1571044921875
0.116,-2.5574951171875,3.9288330078125,-1.5565185546875
0.1165,-3.0379638671875,3.8487548828125,-0.9559326171875
0.117,-3.2381591796875,3.3282470703125,-0.1951904296875
0.1175,-3.6385498046875,3.0880126953125,0.3253173828125
0.118,-3.7186279296875,2.1270751953125,1.3663330078125
0.1185,-3.8787841796875,1.7266845703125,1.9268798828125
0.119,-3.7987060546875,0.9259033203125,2.6475830078125
0.1195,-3.5584716796875,0.2852783203125,3.0479736328125
0.12,-3.2781982421875,-0.3553466796875,3.4884033203125
0.1205,-2.7977294921875,-1.1561279296875,3.7686767578125
0.121,-2.1971435546875,-1.9569091796875,3.9688720703125
0.1215,-1.4764404296875,-2.5574951171875,3.8487548828125
0.122,-0.7156982421875,-3.1981201171875,3.8487548828125
0.1225,0.1251220703125,-3.5584716796875,3.3282470703125
0.123,0.6856689453125,-3.9989013671875,3.2081298828125
0.1235,1.7266845703125,-4.0389404296875,2.3272705078125
0.124,2.2471923828125,-4.2391357421875,1.9669189453125
0.1245,2.8477783203125,-4.0389404296875,1.2862548828125
0.125,3.2882080078125,-3.8787841796875,0.6456298828125
0.1255,3.5284423828125,-3.3983154296875,-0.0350341796875
0.126,3.8887939453125,-2.9578857421875,-0.7957763671875
0.1265,3.9688720703125,-2.0770263671875,-1.7967529296875
0.127,4.0489501953125,-1.5565185546875,-2.3172607421875
0.1275,3.9688720703125,-0.7957763671875,-3.0379638671875
0.128,3.5684814453125,-0.0750732421875,-3.3582763671875
0.1285,3.3682861328125,0.4854736328125,-3.8387451171875
0.129,2.6876220703125,1.4063720703125,-4.0389404296875
0.1295,2.1270751953125,2.0870361328125,-4.2791748046875
0.13,1.2862548828125,2.7276611328125,-3.9989013671875
0.1305,0.5655517578125,3.3282470703125,-3.9188232421875
0.131,-0.2752685546875,3.5684814453125,-3.3582763671875
0.1315,-0.8758544921875,3.9688720703125,-3.1580810546875
0.132,-1.9168701171875,4.0089111328125,-2.2371826171875
0.1325,-2.3973388671875,4.0489501953125,-1.7967529296875
0.133,-2.9578857421875,3.8487548828125,-1.0760498046875
0.1335,-3.2381591796875,3.5284423828125,-0.4754638671875
0.134,-3.5584716796875,3.1680908203125,0.2052001953125
0.1345,-3.7586669921875,2.4874267578125,1.0460205078125
0.135,-3.9188232421875,1.7667236328125,1.9268798828125
0.1355,-3.7987060546875,1.1260986328125,2.4073486328125
0.136,-3.7186279296875,0.4854736328125,3.0479736328125
0.1365,-3.2381591796875,-0.2752685546875,3.3282470703125
0.137,-3.1180419921875,-0.8358154296875,3.7686767578125
0.1375,-2.2772216796875,-1.8367919921875,3.8887939453125
0.138,-1.7567138671875,-2.4373779296875,4.0089111328125
0.1385,-0.8358154296875,-2.9979248046875,3.7686767578125
0.139,-0.1551513671875,-3.5184326171875,3.5684814453125
0.1395,0.6055908203125,-3.7586669921875,3.1280517578125
0.14,1.2862548828125,-4.0389404296875,2.7276611328125
0.1405,2.2071533203125,-4.1590576171875,1.9669189453125
0.141,2.5675048828125,-4.0389404296875,1.5264892578125
0.1415,3.1680908203125,-3.9588623046875,0.8858642578125
0.142,3.3682861328125,-3.4783935546875,0.2052001953125
0.1425,3.7686767578125,-3.1981201171875,-0.3953857421875
0.143,3.8487548828125,-2.3572998046875,-1.3162841796875
0.1435,4.0089111328125,-1.7967529296875,-2.0770263671875
0.144,3.8087158203125,-1.0760498046875,-2.5975341796875
0.1445,3.7686767578125,-0.5155029296875,-3.1180419921875
0.145,3.2882080078125,0.1651611328125,-3.3983154296875
0.1455,3.0880126953125,0.7657470703125,-3.8387451171875
0.146,2.3272705078125,1.7266845703125,-3.9989013671875
0.1465,1.7667236328125,2.2471923828125,-3.9989013671875
0.147,0.9659423828125,2.8477783203125,-3.8387451171875
0.1475,0.2452392578125,3.2481689453125,-3.5584716796875
0.148,-0.3953857421875,3.6085205078125,-3.2381591796875
0.1485,-1.1561279296875,3.7686767578125,-2.6776123046875
0.149,-1.9168701171875,3.9688720703125,-2.1971435546875
0.1495,-2.2772216796875,3.7686767578125,-1.5965576171875
0.15,-2.8778076171875,3.8087158203125,-1.0760498046875
0.1505,-3.0780029296875,3.2081298828125,-0.3153076171875
0.151,-3.5184326171875,3.0479736328125,0.2452392578125
0.1515,-3.5584716796875,2.1671142578125,1.2862548828125
0.152,-3.7987060546875,1.7266845703125,1.8468017578125
0.1525,-3.5584716796875,0.9659423828125,2.4073486328125
0.153,-3.5584716796875,0.4053955078125,2.8878173828125
0.1535,-3.1981201171875,-0.3553466796875,3.2481689453125
0.154,-2.8377685546875,-0.9959716796875,3.6885986328125
0.1545,-2.1571044921875,-1.9168701171875,3.8887939453125
0.155,-1.4364013671875,-2.4373779296875,3.7686767578125
0.1555,-0.6756591796875,-3.1580810546875,3.7686767578125
0.156,0.0850830078125,-3.4783935546875,3.2882080078125
0.1565,0.7257080078125,-3.8387451171875,3.0880126953125
0.157,1.6065673828125,-3.9989013671875,2.3673095703125
0.1575,2.2872314453125,-4.1990966796875,1.9268798828125
0.158,2.6876220703125,-3.8787841796875,1.2462158203125
0.1585,3.2481689453125,-3.8787841796875,0.6856689453125
0.159,3.4884033203125,-3.2381591796875,-0.1151123046875
0.1595,3.8487548828125,-2.9178466796875,-0.7957763671875
0.16,3.9688720703125,-1.9569091796875,-1.8768310546875
0.1605,3.9688720703125,-1.4764404296875,-2.4373779296875
0.161,3.7686767578125,-0.6756591796875,-3.0379638671875
0.1615,3.5284423828125,-0.0750732421875,-3.3983154296875
0.162,3.1680908203125,0.6456298828125,-3.7586669921875
0.1625,2.5675048828125,1.4063720703125,-3.9989013671875
0.163,1.9669189453125,2.2872314453125,-4.1990966796875
0.1635,1.1260986328125,2.7276611328125,-3.8387451171875
0.164,0.4053955078125,3.3682861328125,-3.8387451171875
0.1645,-0.3553466796875,3.5684814453125,-3.1981201171875
0.165,-0.9959716796875,3.8487548828125,-2.9178466796875
0.1655,-1.9569091796875,3.9688720703125,-2.1170654296875
0.166,-2.5174560546875,3.9688720703125,-1.5965576171875
0.1665,-2.8778076171875,3.6885986328125,-0.9559326171875
0.167,-3.2381591796875,3.4884033203125,-0.3553466796875
0.1675,-3.4383544921875,2.8477783203125,0.3653564453125
0.168,-3.6785888671875,2.3673095703125,1.0860595703125
0.1685,-3.7987060546875,1.5665283203125,1.9669189453125
0.169,-3.5985107421875,0.9659423828125,2.4073486328125
0.1695,-3.5584716796875,0.3253173828125,2.9678955078125
0.17,-3.1580810546875,-0.2752685546875,3.2481689453125
0.1705,-2.8778076171875,-0.9158935546875,3.6085205078125
0.171,-2.1971435546875,-1.6766357421875,3.7686767578125
0.1715,-1.5965576171875,-2.3973388671875,3.8887939453125
0.172,-0.7557373046875,-2.8778076171875,3.5284423828125
0.1725,-0.1551513671875,-3.3983154296875,3.4884033203125
0.173,0.6055908203125,-3.5985107421875,2.9278564453125
0.1735,1.2061767578125,-3.8787841796875,2.6475830078125
0.174,2.0469970703125,-4.0389404296875,1.9669189453125
0.1745,2.4473876953125,-3.9188232421875,1.5264892578125
0.175,2.9678955078125,-3.7987060546875,0.9259033203125
0.1755,3.2481689453125,-3.4383544921875,0.2852783203125
0.176,3.5684814453125,-3.0379638671875,-0.3953857421875
0.1765,3.7286376953125,-2.4373779296875,-1.2762451171875
0.177,3.9688720703125,-1.8367919921875,-2.0770263671875
0.1775,3.6885986328125,-1.1561279296875,-2.5174560546875
0.178,3.7686767578125,-0.5955810546875,-3.0780029296875
