wavelength,x,y,z
0.0,-1.98193359375,-4.94482421875,5.14501953125
0.0005,-3.02294921875,-3.98388671875,5.30517578125
0.001,-4.10400390625,-2.98291015625,5.58544921875
0.0015,-4.82470703125,-1.86181640625,5.46533203125
0.002,-5.18505859375,-1.02099609375,5.34521484375
0.0025,-5.26513671875,-0.34033203125,4.98486328125
0.003,-5.26513671875,0.66064453125,4.42431640625
0.0035,-5.14501953125,1.62158203125,3.54345703125
0.004,-5.10498046875,2.86279296875,2.50244140625
0.0045,-4.82470703125,3.66357421875,1.62158203125
0.005,-4.46435546875,4.30419921875,0.82080078125
0.0055,-3.86376953125,4.50439453125,0.14013671875
0.006,-2.86279296875,4.74462890625,-1.14111328125
0.0065,-2.02197265625,4.94482421875,-2.10205078125
0.007,-0.78076171875,4.86474609375,-3.34326171875
0.0075,0.02001953125,4.86474609375,-4.06396484375
0.008,0.78076171875,4.70458984375,-4.66455078125
0.0085,1.58154296875,4.14404296875,-5.06494140625
0.009,2.74267578125,3.06298828125,-5.42529296875
0.0095,3.70361328125,1.98193359375,-5.54541015625
0.01,4.34423828125,1.10107421875,-5.42529296875
0.0105,4.62451171875,0.38037109375,-5.30517578125
0.011,4.74462890625,-0.54052734375,-4.90478515625
0.0115,4.70458984375,-1.38134765625,-4.18408203125
0.012,4.78466796875,-2.46240234375,-3.46337890625
0.0125,4.58447265625,-3.50341796875,-2.42236328125
0.013,4.30419921875,-4.30419921875,-1.54150390625
0.0135,3.98388671875,-4.78466796875,-0.90087890625
0.014,3.30322265625,-5.10498046875,0.06005859375
0.0145,2.42236328125,-5.30517578125,1.10107421875
0.015,1.30126953125,-5.42529296875,2.30224609375
0.0155,0.38037109375,-5.38525390625,3.18310546875
0.016,-0.50048828125,-5.42529296875,3.98388671875
0.0165,-1.14111328125,-5.18505859375,4.50439453125
0.017,-2.14208984375,-4.50439453125,4.86474609375
0.0175,-3.14306640625,-3.66357421875,5.18505859375
0.018,-4.14404296875,-2.42236328125,5.26513671875
0.0185,-4.62451171875,-1.62158203125,5.26513671875
0.019,-4.90478515625,-0.90087890625,5.02490234375
0.0195,-4.94482421875,-0.22021484375,4.62451171875
0.02,-4.98486328125,0.98095703125,3.86376953125
0.0205,-4.98486328125,1.94189453125,3.10302734375
0.021,-4.78466796875,2.90283203125,2.14208984375
0.0215,-4.54443359375,3.62353515625,1.42138671875
0.022,-4.10400390625,4.10400390625,0.62060546875
0.0225,-3.54345703125,4.38427734375,-0.26025390625
0.023,-2.50244140625,4.62451171875,-1.42138671875
0.0235,-1.42138671875,4.74462890625,-2.58251953125
0.024,-0.58056640625,4.70458984375,-3.46337890625
0.0245,0.14013671875,4.70458984375,-4.10400390625
0.025,1.02099609375,4.34423828125,-4.66455078125
0.0255,1.94189453125,3.50341796875,-4.98486328125
0.026,3.02294921875,2.62255859375,-5.26513671875
0.0265,3.82373046875,1.62158203125,-5.30517578125
0.027,4.34423828125,0.78076171875,-5.22509765625
0.0275,4.50439453125,0.14013671875,-4.98486328125
0.028,4.62451171875,-0.82080078125,-4.50439453125
0.0285,4.58447265625,-1.78173828125,-3.78369140625
0.029,4.54443359375,-2.90283203125,-2.86279296875
0.0295,4.42431640625,-3.78369140625,-2.06201171875
0.03,4.14404296875,-4.46435546875,-1.26123046875
0.0305,3.66357421875,-4.78466796875,-0.58056640625
0.031,2.78271484375,-5.06494140625,0.58056640625
0.0315,1.94189453125,-5.30517578125,1.62158203125
0.032,0.78076171875,-5.30517578125,2.74267578125
0.0325,0.06005859375,-5.42529296875,3.54345703125
0.033,-0.78076171875,-5.30517578125,4.18408203125
0.0335,-1.62158203125,-4.86474609375,4.62451171875
0.034,-2.74267578125,-3.86376953125,5.02490234375
0.0345,-3.74365234375,-2.86279296875,5.26513671875
0.035,-4.38427734375,-1.90185546875,5.14501953125
0.0355,-4.70458984375,-1.26123046875,5.10498046875
0.036,-4.90478515625,-0.46044921875,4.74462890625
0.0365,-4.90478515625,0.54052734375,4.14404296875
0.037,-4.98486328125,1.58154296875,3.42333984375
0.0375,-4.86474609375,2.66259765625,2.42236328125
0.038,-4.62451171875,3.46337890625,1.58154296875
0.0385,-4.34423828125,3.98388671875,0.94091796875
0.039,-3.70361328125,4.34423828125,0.06005859375
0.0395,-2.74267578125,4.54443359375,-1.14111328125
0.04,-1.74169921875,4.78466796875,-2.30224609375
0.0405,-0.82080078125,4.70458984375,-3.26318359375
0.041,0.02001953125,4.74462890625,-4.02392578125
0.0415,0.74072265625,4.46435546875,-4.54443359375
0.042,1.78173828125,3.78369140625,-4.98486328125
0.0425,2.78271484375,2.90283203125,-5.26513671875
0.043,3.82373046875,1.74169921875,-5.38525390625
0.0435,4.30419921875,0.94091796875,-5.30517578125
0.044,4.54443359375,0.18017578125,-5.10498046875
0.0445,4.62451171875,-0.62060546875,-4.66455078125
0.045,4.62451171875,-1.78173828125,-3.82373046875
0.0455,4.66455078125,-2.82275390625,-3.06298828125
0.046,4.50439453125,-3.82373046875,-2.06201171875
0.0465,4.22412109375,-4.46435546875,-1.34130859375
0.047,3.74365234375,-4.94482421875,-0.50048828125
0.0475,3.06298828125,-5.14501953125,0.38037109375
0.048,1.94189453125,-5.42529296875,1.62158203125
0.0485,0.82080078125,-5.46533203125,2.82275390625
0.049,0.02001953125,-5.46533203125,3.62353515625
0.0495,-0.78076171875,-5.46533203125,4.22412109375
0.05,-1.62158203125,-4.94482421875,4.82470703125
0.0505,-2.70263671875,-3.98388671875,5.10498046875
0.051,-3.82373046875,-2.98291015625,5.42529296875
0.0515,-4.54443359375,-1.90185546875,5.38525390625
0.052,-4.98486328125,-1.10107421875,5.26513671875
0.0525,-5.10498046875,-0.38037109375,4.90478515625
0.053,-5.14501953125,0.66064453125,4.30419921875
0.0535,-5.06494140625,1.66162109375,3.42333984375
0.054,-5.06494140625,2.90283203125,2.38232421875
0.0545,-4.82470703125,3.74365234375,1.54150390625
0.055,-4.42431640625,4.34423828125,0.70068359375
0.0555,-3.82373046875,4.54443359375,0.02001953125
0.056,-2.70263671875,4.78466796875,-1.34130859375
0.0565,-1.78173828125,4.98486328125,-2.46240234375
0.057,-0.58056640625,4.86474609375,-3.66357421875
0.0575,0.18017578125,4.86474609375,-4.34423828125
0.058,0.98095703125,4.62451171875,-4.90478515625
0.0585,1.86181640625,3.98388671875,-5.26513671875
0.059,3.14306640625,2.82275390625,-5.62548828125
0.0595,4.10400390625,1.70166015625,-5.70556640625
0.06,4.62451171875,0.70068359375,-5.50537109375
0.0605,4.86474609375,0.02001953125,-5.30517578125
0.061,4.98486328125,-0.98095703125,-4.78466796875
0.0615,4.86474609375,-1.98193359375,-3.90380859375
0.062,4.86474609375,-3.18310546875,-2.98291015625
0.0625,4.62451171875,-4.18408203125,-1.94189453125
0.063,4.34423828125,-4.90478515625,-1.06103515625
0.0635,3.86376953125,-5.26513671875,-0.38037109375
0.064,3.02294921875,-5.50537109375,0.66064453125
0.0645,1.94189453125,-5.74560546875,1.86181640625
0.065,0.66064453125,-5.82568359375,3.22314453125
0.0655,-0.34033203125,-5.70556640625,3.98388671875
0.066,-1.06103515625,-5.58544921875,4.74462890625
0.0665,-1.78173828125,-5.14501953125,5.14501953125
0.067,-3.02294921875,-4.14404296875,5.50537109375
0.0675,-4.02392578125,-3.06298828125,5.74560546875
0.068,-5.06494140625,-1.78173828125,5.74560546875
0.0685,-5.42529296875,-0.94091796875,5.58544921875
0.069,-5.58544921875,0.02001953125,5.14501953125
0.0695,-5.46533203125,0.86083984375,4.50439453125
0.07,-5.42529296875,2.22216796875,3.38330078125
0.0705,-5.30517578125,3.26318359375,2.42236328125
0.071,-5.02490234375,4.26416015625,1.30126953125
0.0715,-4.58447265625,4.78466796875,0.50048828125
0.072,-3.86376953125,5.10498046875,-0.50048828125
0.0725,-2.86279296875,5.14501953125,-1.50146484375
0.073,-1.54150390625,5.38525390625,-3.02294921875
0.0735,-0.34033203125,5.22509765625,-4.14404296875
0.074,0.62060546875,5.14501953125,-4.90478515625
0.0745,1.26123046875,4.90478515625,-5.38525390625
0.075,2.38232421875,4.14404296875,-5.86572265625
0.0755,3.54345703125,2.86279296875,-6.02587890625
0.076,4.66455078125,1.66162109375,-6.22607421875
0.0765,5.26513671875,0.50048828125,-5.94580078125
0.077,5.50537109375,-0.50048828125,-5.66552734375
0.0775,5.42529296875,-1.34130859375,-5.02490234375
0.078,5.42529296875,-2.54248046875,-4.10400390625
0.0785,5.10498046875,-3.66357421875,-2.86279296875
0.079,4.98486328125,-4.90478515625,-1.74169921875
0.0795,4.50439453125,-5.50537109375,-0.78076171875
0.08,3.98388671875,-5.94580078125,0.14013671875
0.0805,3.02294921875,-6.06591796875,1.02099609375
0.081,1.70166015625,-6.18603515625,2.42236328125
0.0815,0.50048828125,-6.22607421875,3.54345703125
0.082,-0.86083984375,-5.94580078125,4.70458984375
0.0825,-1.54150390625,-5.74560546875,5.30517578125
0.083,-2.26220703125,-5.30517578125,5.74560546875
0.0835,-3.30322265625,-4.34423828125,5.98583984375
0.084,-4.62451171875,-2.90283203125,6.22607421875
0.0845,-5.50537109375,-1.66162109375,6.10595703125
0.085,-5.94580078125,-0.62060546875,5.82568359375
0.0855,-6.02587890625,0.26025390625,5.42529296875
0.086,-5.90576171875,1.22119140625,4.66455078125
0.0865,-5.70556640625,2.42236328125,3.54345703125
0.087,-5.58544921875,3.58349609375,2.42236328125
0.0875,-5.14501953125,4.54443359375,1.22119140625
0.088,-4.70458984375,5.18505859375,0.34033203125
0.0885,-3.98388671875,5.42529296875,-0.58056640625
0.089,-3.02294921875,5.54541015625,-1.58154296875
0.0895,-1.62158203125,5.50537109375,-3.02294921875
0.09,-0.34033203125,5.62548828125,-4.30419921875
0.0905,0.78076171875,5.26513671875,-5.02490234375
0.091,1.42138671875,5.06494140625,-5.62548828125
0.0915,2.30224609375,4.46435546875,-5.98583984375
0.092,3.46337890625,3.26318359375,-6.22607421875
0.0925,4.50439453125,2.02197265625,-6.34619140625
0.093,5.42529296875,0.70068359375,-6.22607421875
0.0935,5.70556640625,-0.38037109375,-5.82568359375
0.094,5.66552734375,-1.14111328125,-5.34521484375
0.0945,5.54541015625,-2.18212890625,-4.50439453125
0.095,5.30517578125,-3.42333984375,-3.26318359375
0.0955,5.10498046875,-4.50439453125,-2.18212890625
0.096,4.78466796875,-5.42529296875,-1.14111328125
0.0965,4.14404296875,-5.94580078125,-0.18017578125
0.097,3.46337890625,-6.14599609375,0.66064453125
0.0975,2.26220703125,-6.22607421875,1.78173828125
0.098,1.02099609375,-6.26611328125,3.14306640625
0.0985,-0.46044921875,-6.10595703125,4.38427734375
0.099,-1.26123046875,-5.90576171875,5.10498046875
0.0995,-1.94189453125,-5.62548828125,5.58544921875
0.1,-2.82275390625,-4.82470703125,5.90576171875
0.1005,-4.14404296875,-3.54345703125,6.10595703125
0.101,-5.10498046875,-2.34228515625,6.22607421875
0.1015,-5.78564453125,-1.10107421875,5.98583984375
0.102,-5.98583984375,-0.30029296875,5.70556640625
0.1025,-5.98583984375,0.74072265625,5.06494140625
0.103,-5.78564453125,1.66162109375,4.14404296875
0.1035,-5.62548828125,3.02294921875,2.94287109375
0.104,-5.38525390625,4.14404296875,1.82177734375
0.1045,-4.90478515625,4.86474609375,0.74072265625
0.105,-4.42431640625,5.26513671875,0.02001953125
0.1055,-3.50341796875,5.42529296875,-1.14111328125
0.106,-2.30224609375,5.58544921875,-2.26220703125
0.1065,-1.02099609375,5.62548828125,-3.66357421875
0.107,0.34033203125,5.38525390625,-4.70458984375
0.1075,1.14111328125,5.18505859375,-5.42529296875
0.108,1.78173828125,4.82470703125,-5.78564453125
0.1085,2.90283203125,3.86376953125,-6.18603515625
0.109,4.10400390625,2.58251953125,-6.30615234375
0.1095,5.14501953125,1.22119140625,-6.34619140625
0.11,5.58544921875,0.18017578125,-6.06591796875
0.1105,5.74560546875,-0.78076171875,-5.62548828125
0.111,5.62548828125,-1.70166015625,-4.94482421875
0.1115,5.50537109375,-3.02294921875,-3.78369140625
0.112,5.26513671875,-4.02392578125,-2.74267578125
0.1125,4.98486328125,-5.26513671875,-1.46142578125
0.113,4.50439453125,-5.86572265625,-0.58056640625
0.1135,3.82373046875,-6.26611328125,0.42041015625
0.114,2.86279296875,-6.26611328125,1.34130859375
0.1145,1.30126953125,-6.38623046875,2.94287109375
0.115,0.14013671875,-6.26611328125,4.10400390625
0.1155,-1.14111328125,-6.06591796875,5.10498046875
0.116,-1.78173828125,-5.82568359375,5.62548828125
0.1165,-2.66259765625,-5.14501953125,6.02587890625
0.117,-3.82373046875,-3.98388671875,6.22607421875
0.1175,-5.06494140625,-2.66259765625,6.42626953125
0.118,-5.86572265625,-1.30126953125,6.18603515625
0.1185,-6.14599609375,-0.30029296875,5.82568359375
0.119,-6.10595703125,0.62060546875,5.26513671875
0.1195,-5.94580078125,1.58154296875,4.42431640625
0.12,-5.74560546875,2.90283203125,3.14306640625
0.1205,-5.54541015625,4.02392578125,2.02197265625
0.121,-5.02490234375,4.86474609375,0.86083984375
0.1215,-4.54443359375,5.34521484375,0.06005859375
0.122,-3.70361328125,5.58544921875,-0.98095703125
0.1225,-2.58251953125,5.70556640625,-2.06201171875
0.123,-1.22119140625,5.66552734375,-3.46337890625
0.1235,0.26025390625,5.54541015625,-4.74462890625
0.124,1.10107421875,5.26513671875,-5.34521484375
0.1245,1.74169921875,4.98486328125,-5.78564453125
0.125,2.66259765625,4.14404296875,-6.10595703125
0.1255,3.90380859375,2.82275390625,-6.26611328125
0.126,4.82470703125,1.58154296875,-6.34619140625
0.1265,5.50537109375,0.38037109375,-6.10595703125
0.127,5.70556640625,-0.62060546875,-5.70556640625
0.1275,5.58544921875,-1.38134765625,-5.10498046875
0.128,5.42529296875,-2.42236328125,-4.18408203125
0.1285,5.18505859375,-3.58349609375,-3.06298828125
0.129,4.94482421875,-4.78466796875,-1.86181640625
0.1295,4.50439453125,-5.50537109375,-0.94091796875
0.13,3.98388671875,-5.90576171875,0.06005859375
0.1305,3.22314453125,-6.06591796875,0.82080078125
0.131,1.94189453125,-6.10595703125,2.06201171875
0.1315,0.82080078125,-6.14599609375,3.22314453125
0.132,-0.62060546875,-5.90576171875,4.38427734375
0.1325,-1.30126953125,-5.78564453125,5.06494140625
0.133,-2.06201171875,-5.42529296875,5.50537109375
0.1335,-2.86279296875,-4.66455078125,5.78564453125
0.134,-4.18408203125,-3.34326171875,6.02587890625
0.1345,-5.10498046875,-2.18212890625,6.02587890625
0.135,-5.62548828125,-1.06103515625,5.74560546875
0.1355,-5.74560546875,-0.34033203125,5.46533203125
0.136,-5.78564453125,0.70068359375,4.90478515625
0.1365,-5.58544921875,1.62158203125,3.94384765625
0.137,-5.50537109375,2.86279296875,2.90283203125
0.1375,-5.14501953125,3.86376953125,1.78173828125
0.138,-4.82470703125,4.62451171875,0.82080078125
0.1385,-4.22412109375,4.98486328125,0.06005859375
0.139,-3.46337890625,5.22509765625,-0.98095703125
0.1395,-2.26220703125,5.30517578125,-2.18212890625
0.14,-0.98095703125,5.42529296875,-3.54345703125
0.1405,0.18017578125,5.14501953125,-4.34423828125
0.141,0.94091796875,5.02490234375,-5.10498046875
0.1415,1.66162109375,4.62451171875,-5.46533203125
0.142,2.74267578125,3.62353515625,-5.74560546875
0.1425,3.78369140625,2.54248046875,-5.94580078125
0.143,4.74462890625,1.22119140625,-5.90576171875
0.1435,5.10498046875,0.30029296875,-5.70556640625
0.144,5.22509765625,-0.54052734375,-5.30517578125
0.1445,5.18505859375,-1.42138671875,-4.70458984375
0.145,5.10498046875,-2.62255859375,-3.66357421875
0.1455,4.86474609375,-3.66357421875,-2.74267578125
0.146,4.70458984375,-4.54443359375,-1.70166015625
0.1465,4.22412109375,-5.14501953125,-0.78076171875
0.147,3.70361328125,-5.50537109375,0.02001953125
0.1475,2.74267578125,-5.62548828125,0.98095703125
0.148,1.62158203125,-5.78564453125,2.26220703125
0.1485,0.34033203125,-5.70556640625,3.38330078125
0.149,-0.58056640625,-5.62548828125,4.22412109375
0.1495,-1.26123046875,-5.46533203125,4.82470703125
0.15,-2.06201171875,-4.98486328125,5.22509765625
0.1505,-3.18310546875,-3.90380859375,5.50537109375
0.151,-4.14404296875,-2.90283203125,5.70556640625
0.1515,-4.90478515625,-1.74169921875,5.54541015625
0.152,-5.26513671875,-0.98095703125,5.42529296875
0.1525,-5.42529296875,-0.18017578125,4.98486328125
0.153,-5.30517578125,0.66064453125,4.42431640625
0.1535,-5.26513671875,1.86181640625,3.42333984375
0.154,-5.10498046875,2.94287109375,2.46240234375
0.1545,-4.82470703125,3.86376953125,1.46142578125
0.155,-4.46435546875,4.34423828125,0.78076171875
0.1555,-3.82373046875,4.70458984375,-0.26025390625
0.156,-2.90283203125,4.82470703125,-1.14111328125
0.1565,-1.86181640625,5.06494140625,-2.42236328125
0.157,-0.70068359375,4.90478515625,-3.38330078125
0.1575,0.22021484375,4.86474609375,-4.22412109375
0.158,0.86083984375,4.70458984375,-4.74462890625
0.1585,1.78173828125,4.14404296875,-5.22509765625
0.159,2.78271484375,3.14306640625,-5.42529296875
0.1595,3.86376953125,2.06201171875,-5.62548828125
0.16,4.38427734375,1.10107421875,-5.42529296875
0.1605,4.74462890625,0.30029296875,-5.38525390625
0.161,4.82470703125,-0.58056640625,-4.98486328125
0.1615,4.78466796875,-1.58154296875,-4.18408203125
0.162,4.74462890625,-2.42236328125,-3.46337890625
0.1625,4.62451171875,-3.54345703125,-2.42236328125
0.163,4.30419921875,-4.34423828125,-1.54150390625
0.1635,4.02392578125,-4.86474609375,-0.86083984375
0.164,3.34326171875,-5.14501953125,0.06005859375
0.1645,2.30224609375,-5.34521484375,1.22119140625
0.165,1.34130859375,-5.46533203125,2.26220703125
0.1655,0.34033203125,-5.42529296875,3.22314453125
0.166,-0.50048828125,-5.46533203125,4.02392578125
0.1665,-1.22119140625,-5.18505859375,4.54443359375
0.167,-2.18212890625,-4.50439453125,4.94482421875
0.1675,-3.14306640625,-3.62353515625,5.26513671875
0.168,-4.14404296875,-2.42236328125,5.30517578125
0.1685,-4.62451171875,-1.66162109375,5.22509765625
0.169,-4.98486328125,-0.94091796875,5.02490234375
0.1695,-4.98486328125,-0.30029296875,4.66455078125
0.17,-4.98486328125,0.98095703125,3.86376953125
0.1705,-4.98486328125,1.90185546875,3.18310546875
0.171,-4.82470703125,2.90283203125,2.18212890625
0.1715,-4.58447265625,3.58349609375,1.42138671875
0.172,-4.10400390625,4.14404296875,0.62060546875
0.1725,-3.54345703125,4.38427734375,-0.26025390625
0.173,-2.54248046875,4.66455078125,-1.42138671875
0.1735,-1.50146484375,4.70458984375,-2.50244140625
0.174,-0.62060546875,4.74462890625,-3.38330078125
0.1745,0.14013671875,4.74462890625,-4.10400390625
0.175,1.02099609375,4.42431640625,-4.66455078125
0.1755,1.94189453125,3.58349609375,-4.94482421875
0.176,2.98291015625,2.70263671875,-5.30517578125
0.1765,3.74365234375,1.62158203125,-5.30517578125
0.177,4.30419921875,0.82080078125,-5.30517578125
0.1775,4.50439453125,0.14013671875,-5.06494140625
0.178,4.62451171875,-0.78076171875,-4.58447265625
0.1785,4.62451171875,-1.70166015625,-3.86376953125
0.179,4.62451171875,-2.86279296875,-2.98291015625
0.1795,4.34423828125,-3.66357421875,-2.10205078125
0.18,4.22412109375,-4.38427734375,-1.38134765625
0.1805,3.66357421875,-4.78466796875,-0.58056640625
0.181,2.86279296875,-5.06494140625,0.50048828125
0.1815,1.94189453125,-5.30517578125,1.58154296875
0.182,0.90087890625,-5.34521484375,2.70263671875
0.1825,0.06005859375,-5.38525390625,3.54345703125
0.183,-0.66064453125,-5.30517578125,4.18408203125
0.1835,-1.58154296875,-4.82470703125,4.66455078125
0.184,-2.66259765625,-3.98388671875,5.02490234375
0.1845,-3.70361328125,-2.94287109375,5.18505859375
0.185,-4.34423828125,-2.06201171875,5.22509765625
0.1855,-4.82470703125,-1.26123046875,5.10498046875
0.186,-4.90478515625,-0.54052734375,4.82470703125
0.1865,-4.98486328125,0.58056640625,4.14404296875
0.187,-4.98486328125,1.46142578125,3.46337890625
0.1875,-4.90478515625,2.62255859375,2.42236328125
0.188,-4.66455078125,3.42333984375,1.62158203125
0.1885,-4.34423828125,4.02392578125,0.82080078125
0.189,-3.78369140625,4.34423828125,0.10009765625
0.1895,-2.70263671875,4.62451171875,-1.26123046875
0.19,-1.82177734375,4.78466796875,-2.26220703125
0.1905,-0.78076171875,4.78466796875,-3.30322265625
0.191,0.06005859375,4.82470703125,-4.06396484375
0.1915,0.86083984375,4.50439453125,-4.66455078125
0.192,1.78173828125,3.82373046875,-4.98486328125
0.1925,2.90283203125,2.82275390625,-5.38525390625
0.193,3.82373046875,1.66162109375,-5.42529296875
0.1935,4.34423828125,0.82080078125,-5.38525390625
0.194,4.62451171875,0.14013671875,-5.14501953125
0.1945,4.66455078125,-0.78076171875,-4.62451171875
0.195,4.62451171875,-1.82177734375,-3.82373046875
0.1955,4.70458984375,-2.90283203125,-3.02294921875
0.196,4.46435546875,-3.82373046875,-2.06201171875
0.1965,4.22412109375,-4.50439453125,-1.30126953125
0.197,3.70361328125,-4.94482421875,-0.50048828125
0.1975,3.02294921875,-5.22509765625,0.46044921875
0.198,1.94189453125,-5.42529296875,1.66162109375
0.1985,0.82080078125,-5.46533203125,2.86279296875
0.199,0.02001953125,-5.42529296875,3.66357421875
0.1995,-0.78076171875,-5.42529296875,4.30419921875
