wavelength,x,y,z
0.0,-5.50537109375,6.58642578125,-1.42138671875
0.0005,-5.82568359375,5.78564453125,-0.34033203125
0.001,-6.38623046875,5.66552734375,0.46044921875
0.0015,-6.46630859375,4.26416015625,1.94189453125
0.002,-6.70654296875,3.46337890625,3.06298828125
0.0025,-6.54638671875,2.06201171875,4.34423828125
0.003,-6.10595703125,0.82080078125,5.10498046875
0.0035,-5.30517578125,-0.50048828125,5.70556640625
0.004,-4.82470703125,-1.62158203125,6.26611328125
0.0045,-3.54345703125,-3.18310546875,6.50634765625
0.005,-2.58251953125,-4.18408203125,6.58642578125
0.0055,-1.26123046875,-5.26513671875,6.38623046875
0.006,0.02001953125,-5.78564453125,5.70556640625
0.0065,0.94091796875,-6.42626953125,5.42529296875
0.007,2.62255859375,-6.70654296875,4.02392578125
0.0075,3.98388671875,-6.98681640625,2.94287109375
0.008,5.02490234375,-6.70654296875,1.62158203125
0.0085,5.78564453125,-6.46630859375,0.62060546875
0.009,6.02587890625,-5.70556640625,-0.42041015625
0.0095,6.46630859375,-5.38525390625,-1.26123046875
0.01,6.54638671875,-3.82373046875,-2.82275390625
0.0105,6.62646484375,-3.02294921875,-3.82373046875
0.011,6.38623046875,-1.58154296875,-4.98486328125
0.0115,5.74560546875,-0.34033203125,-5.58544921875
0.012,5.10498046875,0.86083984375,-6.14599609375
0.0125,4.34423828125,2.06201171875,-6.54638671875
0.013,3.18310546875,3.58349609375,-6.90673828125
0.0135,2.18212890625,4.46435546875,-6.74658203125
0.014,0.82080078125,5.46533203125,-6.50634765625
0.0145,-0.30029296875,5.86572265625,-5.74560546875
0.015,-1.30126953125,6.54638671875,-5.50537109375
0.0155,-3.14306640625,6.74658203125,-3.90380859375
0.016,-4.34423828125,6.98681640625,-2.94287109375
0.0165,-5.30517578125,6.58642578125,-1.62158203125
0.017,-5.94580078125,6.26611328125,-0.62060546875
0.0175,-6.26611328125,5.58544921875,0.34033203125
0.018,-6.62646484375,4.98486328125,1.38134765625
0.0185,-6.78662109375,3.54345703125,3.02294921875
0.019,-6.70654296875,2.58251953125,3.90380859375
0.0195,-6.46630859375,1.18115234375,5.10498046875
0.02,-5.62548828125,-0.18017578125,5.58544921875
0.0205,-5.14501953125,-1.30126953125,6.26611328125
0.021,-3.90380859375,-2.82275390625,6.54638671875
0.0215,-2.86279296875,-4.18408203125,6.90673828125
0.022,-1.58154296875,-5.02490234375,6.42626953125
0.0225,-0.38037109375,-5.94580078125,6.22607421875
0.023,0.78076171875,-6.26611328125,5.34521484375
0.0235,1.94189453125,-6.90673828125,4.86474609375
0.024,3.86376953125,-7.06689453125,3.14306640625
0.0245,4.98486328125,-7.06689453125,2.06201171875
0.025,5.82568359375,-6.62646484375,0.66064453125
0.0255,6.30615234375,-6.10595703125,-0.30029296875
0.026,6.58642578125,-5.42529296875,-1.26123046875
0.0265,6.70654296875,-4.38427734375,-2.50244140625
0.027,6.94677734375,-3.14306640625,-3.98388671875
0.0275,6.46630859375,-1.90185546875,-4.78466796875
0.028,6.26611328125,-0.58056640625,-5.86572265625
0.0285,5.14501953125,0.78076171875,-6.10595703125
0.029,4.82470703125,1.82177734375,-6.74658203125
0.0295,3.30322265625,3.46337890625,-6.94677734375
0.03,2.38232421875,4.62451171875,-7.10693359375
0.0305,0.94091796875,5.42529296875,-6.46630859375
0.031,-0.14013671875,6.18603515625,-6.22607421875
0.0315,-1.30126953125,6.42626953125,-5.38525390625
0.032,-2.54248046875,6.90673828125,-4.62451171875
0.0325,-4.42431640625,7.06689453125,-2.98291015625
0.033,-5.18505859375,6.74658203125,-1.90185546875
0.0335,-6.10595703125,6.42626953125,-0.70068359375
0.034,-6.34619140625,5.74560546875,0.30029296875
0.0345,-6.70654296875,5.22509765625,1.26123046875
0.035,-6.74658203125,3.90380859375,2.66259765625
0.0355,-6.98681640625,2.82275390625,3.98388671875
0.036,-6.34619140625,1.42138671875,4.74462890625
0.0365,-6.10595703125,0.26025390625,5.70556640625
0.037,-5.02490234375,-1.14111328125,5.98583984375
0.0375,-4.62451171875,-2.18212890625,6.58642578125
0.038,-3.06298828125,-3.86376953125,6.74658203125
0.0385,-2.06201171875,-4.78466796875,6.66650390625
0.039,-0.66064453125,-5.62548828125,6.14599609375
0.0395,0.34033203125,-6.22607421875,5.74560546875
0.04,1.54150390625,-6.58642578125,4.98486328125
0.0405,3.02294921875,-6.98681640625,3.86376953125
0.041,4.74462890625,-7.22705078125,2.42236328125
0.0415,5.38525390625,-6.66650390625,1.22119140625
0.042,6.18603515625,-6.42626953125,0.18017578125
0.0425,6.26611328125,-5.54541015625,-0.82080078125
0.043,6.66650390625,-5.02490234375,-1.74169921875
0.0435,6.70654296875,-3.54345703125,-3.30322265625
0.044,6.78662109375,-2.54248046875,-4.46435546875
0.0445,6.10595703125,-1.06103515625,-5.22509765625
0.045,5.74560546875,0.06005859375,-5.98583984375
0.0455,4.74462890625,1.34130859375,-6.26611328125
0.046,4.14404296875,2.42236328125,-6.74658203125
0.0465,2.78271484375,4.10400390625,-7.02685546875
0.047,1.66162109375,4.82470703125,-6.62646484375
0.0475,0.46044921875,5.74560546875,-6.34619140625
0.048,-0.62060546875,6.06591796875,-5.70556640625
0.0485,-1.78173828125,6.46630859375,-5.02490234375
0.049,-3.34326171875,6.70654296875,-3.66357421875
0.0495,-4.78466796875,6.90673828125,-2.50244140625
0.05,-5.26513671875,6.22607421875,-1.26123046875
0.0505,-5.98583984375,6.10595703125,-0.46044921875
0.051,-6.10595703125,5.22509765625,0.62060546875
0.0515,-6.42626953125,4.62451171875,1.58154296875
0.052,-6.58642578125,3.22314453125,3.14306640625
0.0525,-6.38623046875,2.26220703125,3.98388671875
0.053,-5.90576171875,0.86083984375,4.90478515625
0.0535,-5.42529296875,-0.22021484375,5.42529296875
0.054,-4.66455078125,-1.42138671875,5.90576171875
0.0545,-3.82373046875,-2.58251953125,6.22607421875
0.055,-2.66259765625,-3.98388671875,6.46630859375
0.0555,-1.58154296875,-4.54443359375,5.90576171875
0.056,-0.62060546875,-5.46533203125,5.90576171875
0.0565,0.58056640625,-5.78564453125,5.10498046875
0.057,1.66162109375,-6.38623046875,4.54443359375
0.0575,3.38330078125,-6.58642578125,3.06298828125
0.058,4.46435546875,-6.58642578125,2.10205078125
0.0585,5.10498046875,-6.10595703125,0.98095703125
0.059,5.58544921875,-5.90576171875,0.30029296875
0.0595,5.86572265625,-5.14501953125,-0.82080078125
0.06,6.10595703125,-4.42431640625,-1.82177734375
0.0605,6.42626953125,-3.26318359375,-3.30322265625
0.061,6.02587890625,-2.22216796875,-3.98388671875
0.0615,5.78564453125,-0.98095703125,-5.02490234375
0.062,5.10498046875,0.18017578125,-5.42529296875
0.0625,4.62451171875,1.30126953125,-6.10595703125
0.063,3.54345703125,2.66259765625,-6.38623046875
0.0635,2.62255859375,3.82373046875,-6.62646484375
0.064,1.42138671875,4.50439453125,-6.02587890625
0.0645,0.62060546875,5.26513671875,-6.10595703125
0.065,-0.70068359375,5.62548828125,-5.18505859375
0.0655,-1.90185546875,6.14599609375,-4.62451171875
0.066,-3.62353515625,6.50634765625,-3.18310546875
0.0665,-4.42431640625,6.30615234375,-2.26220703125
0.067,-5.14501953125,6.02587890625,-1.26123046875
0.0675,-5.46533203125,5.66552734375,-0.46044921875
0.068,-5.90576171875,4.98486328125,0.66064453125
0.0685,-6.10595703125,3.98388671875,1.86181640625
0.069,-6.38623046875,3.02294921875,3.18310546875
0.0695,-5.74560546875,1.74169921875,3.86376953125
0.07,-5.74560546875,0.70068359375,4.86474609375
0.0705,-4.82470703125,-0.58056640625,5.18505859375
0.071,-4.46435546875,-1.58154296875,5.82568359375
0.0715,-3.18310546875,-3.10302734375,6.10595703125
0.072,-2.22216796875,-3.98388671875,6.02587890625
0.0725,-1.14111328125,-4.74462890625,5.62548828125
0.073,-0.30029296875,-5.38525390625,5.42529296875
0.0735,1.06103515625,-5.78564453125,4.58447265625
0.074,2.30224609375,-6.18603515625,3.78369140625
0.0745,3.86376953125,-6.46630859375,2.58251953125
0.075,4.42431640625,-5.98583984375,1.54150390625
0.0755,5.14501953125,-5.94580078125,0.78076171875
0.076,5.38525390625,-5.26513671875,-0.18017578125
0.0765,5.78564453125,-4.74462890625,-1.18115234375
0.077,5.94580078125,-3.58349609375,-2.50244140625
0.0775,6.14599609375,-2.70263671875,-3.58349609375
0.078,5.50537109375,-1.38134765625,-4.30419921875
0.0785,5.42529296875,-0.50048828125,-5.14501953125
0.079,4.54443359375,0.78076171875,-5.50537109375
0.0795,4.14404296875,1.86181640625,-6.14599609375
0.08,2.94287109375,3.34326171875,-6.42626953125
0.0805,1.94189453125,3.98388671875,-6.10595703125
0.081,0.94091796875,4.86474609375,-6.02587890625
0.0815,-0.14013671875,5.34521484375,-5.50537109375
0.082,-1.42138671875,5.90576171875,-4.78466796875
0.0825,-2.86279296875,6.26611328125,-3.70361328125
0.083,-4.14404296875,6.46630859375,-2.62255859375
0.0835,-4.62451171875,5.90576171875,-1.58154296875
0.084,-5.38525390625,5.98583984375,-0.90087890625
0.0845,-5.62548828125,5.10498046875,0.26025390625
0.085,-6.06591796875,4.50439453125,1.30126953125
0.0855,-6.26611328125,3.26318359375,2.82275390625
0.086,-6.10595703125,2.26220703125,3.70361328125
0.0865,-5.62548828125,0.90087890625,4.54443359375
0.087,-5.26513671875,-0.14013671875,5.22509765625
0.0875,-4.42431640625,-1.42138671875,5.62548828125
0.088,-3.66357421875,-2.62255859375,6.10595703125
0.0885,-2.50244140625,-3.98388671875,6.26611328125
0.089,-1.30126953125,-4.62451171875,5.70556640625
0.0895,-0.50048828125,-5.46533203125,5.70556640625
0.09,0.90087890625,-5.74560546875,4.78466796875
0.0905,2.18212890625,-6.26611328125,4.02392578125
0.091,3.70361328125,-6.46630859375,2.70263671875
0.0915,4.66455078125,-6.38623046875,1.66162109375
0.092,5.10498046875,-5.78564453125,0.66064453125
0.0925,5.66552734375,-5.70556640625,0.02001953125
0.093,5.82568359375,-4.62451171875,-1.26123046875
0.0935,6.10595703125,-3.90380859375,-2.30224609375
0.094,6.30615234375,-2.70263671875,-3.78369140625
0.0945,5.78564453125,-1.54150390625,-4.46435546875
0.095,5.42529296875,-0.34033203125,-5.26513671875
0.0955,4.78466796875,0.78076171875,-5.70556640625
0.096,4.02392578125,1.98193359375,-6.18603515625
0.0965,3.06298828125,3.22314453125,-6.50634765625
0.097,1.94189453125,4.34423828125,-6.46630859375
0.0975,0.74072265625,4.86474609375,-5.86572265625
0.098,0.02001953125,5.70556640625,-5.82568359375
0.0985,-1.58154296875,5.98583984375,-4.62451171875
0.099,-2.74267578125,6.42626953125,-3.90380859375
0.0995,-4.26416015625,6.54638671875,-2.58251953125
0.1,-4.94482421875,6.14599609375,-1.58154296875
0.1005,-5.46533203125,5.78564453125,-0.66064453125
0.101,-5.82568359375,5.42529296875,0.18017578125
0.1015,-6.10595703125,4.38427734375,1.46142578125
0.102,-6.26611328125,3.50341796875,2.58251953125
0.1025,-6.38623046875,2.30224609375,3.86376953125
0.103,-5.62548828125,0.98095703125,4.50439453125
0.1035,-5.54541015625,0.02001953125,5.42529296875
0.104,-4.50439453125,-1.34130859375,5.70556640625
0.1045,-3.86376953125,-2.54248046875,6.22607421875
0.105,-2.62255859375,-3.86376953125,6.26611328125
0.1055,-1.50146484375,-4.78466796875,6.02587890625
0.106,-0.42041015625,-5.26513671875,5.50537109375
0.1065,0.58056640625,-5.94580078125,5.26513671875
0.107,2.18212890625,-6.22607421875,3.94384765625
0.1075,3.34326171875,-6.54638671875,3.18310546875
0.108,4.62451171875,-6.54638671875,1.90185546875
0.1085,5.10498046875,-6.02587890625,0.82080078125
0.109,5.70556640625,-5.78564453125,0.06005859375
0.1095,5.86572265625,-5.02490234375,-0.98095703125
0.11,6.14599609375,-4.10400390625,-2.22216796875
0.1105,6.22607421875,-3.02294921875,-3.34326171875
0.111,6.18603515625,-1.94189453125,-4.46435546875
0.1115,5.30517578125,-0.58056640625,-4.94482421875
0.112,5.26513671875,0.34033203125,-5.74560546875
0.1125,4.06396484375,1.70166015625,-6.02587890625
0.113,3.50341796875,2.86279296875,-6.54638671875
0.1135,2.22216796875,4.06396484375,-6.46630859375
0.114,1.02099609375,4.86474609375,-6.10595703125
0.1145,0.14013671875,5.42529296875,-5.74560546875
0.115,-1.10107421875,5.98583984375,-5.14501953125
0.1155,-2.54248046875,6.26611328125,-3.98388671875
0.116,-3.70361328125,6.46630859375,-3.06298828125
0.1165,-4.78466796875,6.42626953125,-1.94189453125
0.117,-5.14501953125,5.78564453125,-0.98095703125
0.1175,-5.78564453125,5.74560546875,-0.26025390625
0.118,-5.90576171875,4.62451171875,1.02099609375
0.1185,-6.26611328125,3.86376953125,2.18212890625
0.119,-6.22607421875,2.62255859375,3.38330078125
0.1195,-6.02587890625,1.58154296875,4.30419921875
0.12,-5.30517578125,0.26025390625,4.86474609375
0.1205,-5.10498046875,-0.78076171875,5.62548828125
0.121,-3.86376953125,-2.22216796875,5.90576171875
0.1215,-3.18310546875,-3.30322265625,6.26611328125
0.122,-1.94189453125,-4.42431640625,6.10595703125
0.1225,-0.82080078125,-4.98486328125,5.66552734375
0.123,0.10009765625,-5.70556640625,5.46533203125
0.1235,1.58154296875,-6.10595703125,4.42431640625
0.124,2.94287109375,-6.42626953125,3.46337890625
0.1245,4.10400390625,-6.46630859375,2.30224609375
0.125,4.98486328125,-6.30615234375,1.30126953125
0.1255,5.26513671875,-5.70556640625,0.34033203125
0.126,5.82568359375,-5.54541015625,-0.38037109375
0.1265,5.94580078125,-4.26416015625,-1.78173828125
0.127,6.26611328125,-3.54345703125,-2.86279296875
0.1275,6.14599609375,-2.26220703125,-4.06396484375
0.128,5.70556640625,-1.14111328125,-4.78466796875
0.1285,5.14501953125,0.06005859375,-5.42529296875
0.129,4.62451171875,1.14111328125,-5.94580078125
0.1295,3.58349609375,2.58251953125,-6.38623046875
0.13,2.74267578125,3.62353515625,-6.50634765625
0.1305,1.50146484375,4.66455078125,-6.34619140625
0.131,0.46044921875,5.14501953125,-5.74560546875
0.1315,-0.50048828125,5.90576171875,-5.62548828125
0.132,-2.18212890625,6.18603515625,-4.22412109375
0.1325,-3.46337890625,6.54638671875,-3.34326171875
0.133,-4.50439453125,6.38623046875,-2.18212890625
0.1335,-5.18505859375,6.14599609375,-1.26123046875
0.134,-5.54541015625,5.58544921875,-0.30029296875
0.1345,-6.02587890625,5.14501953125,0.58056640625
0.135,-6.22607421875,3.90380859375,2.06201171875
0.1355,-6.30615234375,3.06298828125,3.06298828125
0.136,-6.22607421875,1.78173828125,4.22412109375
0.1365,-5.50537109375,0.50048828125,4.82470703125
0.137,-5.14501953125,-0.62060546875,5.58544921875
0.1375,-4.14404296875,-1.98193359375,5.90576171875
0.138,-3.26318359375,-3.22314453125,6.34619140625
0.1385,-2.14208984375,-4.14404296875,6.14599609375
0.139,-1.02099609375,-5.10498046875,5.94580078125
0.1395,0.06005859375,-5.46533203125,5.30517578125
0.14,1.06103515625,-6.14599609375,5.02490234375
0.1405,2.82275390625,-6.34619140625,3.50341796875
0.141,3.98388671875,-6.62646484375,2.58251953125
0.1415,4.94482421875,-6.34619140625,1.34130859375
0.142,5.42529296875,-5.90576171875,0.50048828125
0.1425,5.78564453125,-5.42529296875,-0.46044921875
0.143,6.02587890625,-4.62451171875,-1.46142578125
0.1435,6.26611328125,-3.54345703125,-2.86279296875
0.144,6.10595703125,-2.54248046875,-3.78369140625
0.1445,6.06591796875,-1.42138671875,-4.86474609375
0.145,5.10498046875,-0.14013671875,-5.22509765625
0.1455,4.98486328125,0.82080078125,-6.02587890625
0.146,3.70361328125,2.34228515625,-6.22607421875
0.1465,3.02294921875,3.50341796875,-6.66650390625
0.147,1.70166015625,4.42431640625,-6.26611328125
0.1475,0.66064453125,5.22509765625,-6.10595703125
0.148,-0.38037109375,5.58544921875,-5.42529296875
0.1485,-1.58154296875,6.18603515625,-4.86474609375
0.149,-3.18310546875,6.42626953125,-3.50341796875
0.1495,-4.18408203125,6.46630859375,-2.54248046875
0.15,-5.10498046875,6.22607421875,-1.46142578125
0.1505,-5.42529296875,5.74560546875,-0.58056640625
0.151,-5.98583984375,5.38525390625,0.30029296875
0.1515,-6.10595703125,4.26416015625,1.58154296875
0.152,-6.42626953125,3.38330078125,2.86279296875
0.1525,-6.10595703125,2.10205078125,3.78369140625
0.153,-5.94580078125,0.98095703125,4.78466796875
0.1535,-5.10498046875,-0.34033203125,5.14501953125
0.154,-4.82470703125,-1.26123046875,5.90576171875
0.1545,-3.50341796875,-2.86279296875,6.14599609375
0.155,-2.70263671875,-3.86376953125,6.34619140625
0.1555,-1.34130859375,-4.82470703125,6.02587890625
0.156,-0.38037109375,-5.46533203125,5.70556640625
0.1565,0.70068359375,-5.98583984375,5.10498046875
0.157,2.18212890625,-6.42626953125,4.14404296875
0.1575,3.82373046875,-6.74658203125,2.86279296875
0.158,4.66455078125,-6.42626953125,1.78173828125
0.1585,5.50537109375,-6.30615234375,0.78076171875
0.159,5.74560546875,-5.58544921875,-0.26025390625
0.1595,6.22607421875,-5.18505859375,-1.10107421875
0.16,6.30615234375,-3.82373046875,-2.62255859375
0.1605,6.54638671875,-2.94287109375,-3.78369140625
0.161,6.02587890625,-1.58154296875,-4.74462890625
0.1615,5.70556640625,-0.46044921875,-5.50537109375
0.162,4.82470703125,0.90087890625,-5.90576171875
0.1625,4.34423828125,1.94189453125,-6.42626953125
0.163,3.02294921875,3.62353515625,-6.78662109375
0.1635,1.98193359375,4.46435546875,-6.58642578125
0.164,0.70068359375,5.38525390625,-6.30615234375
0.1645,-0.30029296875,5.78564453125,-5.70556640625
0.165,-1.42138671875,6.34619140625,-5.14501953125
0.1655,-3.06298828125,6.58642578125,-3.82373046875
0.166,-4.54443359375,6.90673828125,-2.62255859375
0.1665,-5.18505859375,6.26611328125,-1.34130859375
0.167,-5.94580078125,6.14599609375,-0.50048828125
0.1675,-6.06591796875,5.26513671875,0.50048828125
0.168,-6.38623046875,4.74462890625,1.42138671875
0.1685,-6.54638671875,3.26318359375,3.06298828125
0.169,-6.46630859375,2.26220703125,3.98388671875
0.1695,-6.02587890625,0.86083984375,4.94482421875
0.17,-5.42529296875,-0.26025390625,5.50537109375
0.1705,-4.66455078125,-1.42138671875,5.94580078125
0.171,-3.82373046875,-2.66259765625,6.30615234375
0.1715,-2.62255859375,-4.14404296875,6.54638671875
0.172,-1.42138671875,-4.78466796875,6.06591796875
0.1725,-0.46044921875,-5.70556640625,5.94580078125
0.173,0.66064453125,-5.90576171875,5.10498046875
0.1735,1.78173828125,-6.46630859375,4.62451171875
0.174,3.58349609375,-6.66650390625,3.06298828125
0.1745,4.78466796875,-6.74658203125,1.94189453125
0.175,5.38525390625,-6.10595703125,0.74072265625
0.1755,5.90576171875,-5.94580078125,0.02001953125
0.176,6.06591796875,-5.14501953125,-1.06103515625
0.1765,6.26611328125,-4.46435546875,-1.98193359375
0.177,6.54638671875,-3.18310546875,-3.58349609375
0.1775,6.18603515625,-2.10205078125,-4.34423828125
0.178,5.90576171875,-0.70068359375,-5.30517578125
0.1785,5.10498046875,0.42041015625,-5.70556640625
0.179,4.62451171875,1.46142578125,-6.26611328125
0.1795,3.50341796875,2.86279296875,-6.50634765625
0.18,2.50244140625,4.14404296875,-6.78662109375
0.1805,1.22119140625,4.78466796875,-6.10595703125
0.181,0.34033203125,5.62548828125,-6.14599609375
0.1815,-0.90087890625,5.86572265625,-5.22509765625
0.182,-2.02197265625,6.42626953125,-4.66455078125
0.1825,-3.82373046875,6.66650390625,-3.14306640625
0.183,-4.74462890625,6.50634765625,-2.10205078125
0.1835,-5.42529296875,6.10595703125,-0.98095703125
0.184,-5.78564453125,5.74560546875,-0.26025390625
0.1845,-6.10595703125,4.98486328125,0.82080078125
0.185,-6.26611328125,3.98388671875,2.02197265625
0.1855,-6.58642578125,2.90283203125,3.46337890625
0.186,-5.98583984375,1.66162109375,4.14404296875
0.1865,-5.86572265625,0.58056640625,5.10498046875
0.187,-4.90478515625,-0.66064453125,5.42529296875
0.1875,-4.50439453125,-1.74169921875,6.10595703125
0.188,-3.18310546875,-3.34326171875,6.30615234375
0.1885,-2.18212890625,-4.34423828125,6.30615234375
0.189,-0.98095703125,-4.98486328125,5.74560546875
0.1895,-0.14013671875,-5.66552734375,5.62548828125
0.19,1.22119140625,-6.02587890625,4.70458984375
0.1905,2.50244140625,-6.42626953125,3.86376953125
0.191,4.18408203125,-6.74658203125,2.50244140625
0.1915,4.82470703125,-6.26611328125,1.38134765625
0.192,5.58544921875,-6.10595703125,0.50048828125
0.1925,5.74560546875,-5.46533203125,-0.38037109375
0.193,6.14599609375,-4.82470703125,-1.42138671875
0.1935,6.26611328125,-3.66357421875,-2.78271484375
0.194,6.42626953125,-2.62255859375,-3.98388671875
0.1945,5.70556640625,-1.26123046875,-4.66455078125
0.195,5.58544921875,-0.26025390625,-5.50537109375
0.1955,4.58447265625,1.02099609375,-5.74560546875
0.196,4.14404296875,2.06201171875,-6.38623046875
0.1965,2.82275390625,3.70361328125,-6.66650390625
0.197,1.74169921875,4.46435546875,-6.38623046875
0.1975,0.66064453125,5.22509765625,-6.10595703125
0.198,-0.30029296875,5.74560546875,-5.62548828125
0.1985,-1.58154296875,6.14599609375,-4.78466796875
0.199,-3.02294921875,6.42626953125,-3.70361328125
0.1995,-4.50439453125,6.70654296875,-2.54248046875
