wavelength,x,y,z
0.0,-20.3798828125,11.5712890625,7.8076171875
0.0005,-20.2197265625,8.0478515625,11.2509765625
0.001,-19.69921875,3.9638671875,14.734375
0.0015,-18.2578125,-0.4404296875,17.77734375
0.002,-16.416015625,-3.84375,19.37890625
0.0025,-14.4140625,-6.486328125,20.01953125
0.003,-11.8115234375,-9.3291015625,20.419921875
0.0035,-6.5263671875,-13.4130859375,19.3388671875
0.004,-2.1220703125,-16.416015625,18.09765625
0.0045,2.2021484375,-18.6982421875,16.3759765625
0.005,5.365234375,-20.01953125,14.7744140625
0.0055,8.16796875,-20.01953125,12.171875
0.006,11.2509765625,-19.939453125,9.2490234375
0.0065,15.134765625,-19.21875,4.7646484375
0.007,18.0576171875,-17.376953125,0.080078125
0.0075,19.6591796875,-15.7353515625,-3.203125
0.008,20.419921875,-13.8134765625,-5.92578125
0.0085,20.5400390625,-11.05078125,-8.728515625
0.009,20.01953125,-6.56640625,-12.732421875
0.0095,19.3388671875,-2.7626953125,-15.775390625
0.01,17.857421875,1.4013671875,-18.4580078125
0.0105,15.9755859375,4.724609375,-19.8994140625
0.011,13.29296875,7.4072265625,-20.01953125
0.0115,10.3701171875,10.5302734375,-20.2998046875
0.012,5.0849609375,14.654296875,-19.298828125
0.0125,0.240234375,17.537109375,-17.537109375
0.013,-3.3232421875,19.21875,-15.9755859375
0.0135,-6.6064453125,20.33984375,-14.2138671875
0.014,-9.369140625,20.259765625,-11.4111328125
0.0145,-12.97265625,19.6591796875,-7.4072265625
0.015,-16.4560546875,18.8583984375,-3.203125
0.0155,-19.05859375,16.9365234375,1.4013671875
0.016,-20.419921875,15.0146484375,4.4443359375
0.0165,-20.8203125,12.6123046875,7.287109375
0.017,-21.0205078125,9.8896484375,10.169921875
0.0175,-20.33984375,5.0048828125,14.3740234375
0.018,-19.0986328125,0.80078125,17.376953125
0.0185,-17.45703125,-2.962890625,19.4990234375
0.019,-15.53515625,-6.1259765625,20.7802734375
0.0195,-12.33203125,-9.048828125,20.6201171875
0.02,-8.5283203125,-12.4921875,20.33984375
0.0205,-3.5634765625,-16.2958984375,19.3388671875
0.021,1.681640625,-19.05859375,17.13671875
0.0215,4.8046875,-20.2197265625,15.4951171875
0.022,7.767578125,-20.9404296875,13.4130859375
0.0225,10.8505859375,-20.8603515625,10.5302734375
0.023,14.8544921875,-19.859375,5.60546875
0.0235,18.0576171875,-18.5380859375,1.361328125
0.024,20.33984375,-16.65625,-2.9228515625
0.0245,21.1806640625,-14.6142578125,-5.8056640625
0.025,21.220703125,-11.53125,-8.8486328125
0.0255,21.1005859375,-8.2080078125,-12.1318359375
0.026,20.419921875,-3.5634765625,-16.015625
0.0265,18.6982421875,1.041015625,-18.8984375
0.027,16.7763671875,4.32421875,-20.2998046875
0.0275,14.654296875,7.3671875,-21.30078125
0.028,11.2109375,10.41015625,-21.0205078125
0.0285,6.24609375,14.333984375,-20.099609375
0.029,1.6015625,17.6171875,-18.9384765625
0.0295,-3.203125,19.9794921875,-16.81640625
0.03,-6.166015625,20.8203125,-14.89453125
0.0305,-9.2890625,21.060546875,-12.2919921875
0.031,-12.4521484375,20.8203125,-9.0888671875
0.0315,-16.4560546875,19.69921875,-4.1240234375
0.032,-19.3388671875,17.7373046875,0.6806640625
0.0325,-20.98046875,15.85546875,4.1240234375
0.033,-21.7412109375,13.6533203125,7.046875
0.0335,-21.5009765625,10.3701171875,10.1298828125
0.034,-20.98046875,6.24609375,13.7333984375
0.0345,-20.1796875,2.0419921875,17.216796875
0.035,-18.2578125,-2.4423828125,19.8994140625
0.0355,-16.1357421875,-5.525390625,20.7802734375
0.036,-13.8134765625,-8.408203125,21.30078125
0.0365,-10.25,-11.5712890625,21.1005859375
0.037,-4.7646484375,-15.53515625,19.779296875
0.0375,0.0400390625,-18.3779296875,18.0576171875
0.038,4.00390625,-20.259765625,16.2158203125
0.0385,6.966796875,-20.98046875,14.25390625
0.039,10.08984375,-20.8203125,11.2109375
0.0395,13.4130859375,-20.33984375,7.52734375
0.04,17.0166015625,-19.2587890625,2.8828125
0.0405,19.69921875,-17.1767578125,-1.8017578125
0.041,20.900390625,-15.294921875,-4.724609375
0.0415,21.30078125,-12.8525390625,-7.5673828125
0.042,21.1005859375,-9.6494140625,-10.650390625
0.0425,20.419921875,-5.0849609375,-14.494140625
0.043,19.298828125,-1.0009765625,-17.45703125
0.0435,17.5771484375,3.0830078125,-19.859375
0.044,15.375,6.005859375,-20.580078125
0.0445,12.4921875,8.96875,-20.7802734375
0.045,8.6083984375,12.4521484375,-20.4599609375
0.0455,3.443359375,16.2158203125,-19.298828125
0.046,-1.4814453125,18.818359375,-17.2568359375
0.0465,-4.6845703125,20.1796875,-15.6552734375
0.047,-7.6474609375,20.8603515625,-13.61328125
0.0475,-10.8505859375,20.6201171875,-10.3701171875
0.048,-14.57421875,19.859375,-6.0458984375
0.0485,-17.857421875,18.498046875,-1.521484375
0.049,-20.259765625,16.4560546875,2.8828125
0.0495,-21.0205078125,14.494140625,5.525390625
0.05,-21.380859375,11.8115234375,8.6083984375
0.0505,-21.140625,8.2080078125,11.9716796875
0.051,-20.3798828125,3.6435546875,15.775390625
0.0515,-18.73828125,-0.80078125,18.5380859375
0.052,-17.0166015625,-4.32421875,20.419921875
0.0525,-14.7744140625,-7.20703125,21.1005859375
0.053,-11.4111328125,-10.2900390625,20.98046875
0.0535,-6.966796875,-13.9736328125,20.2998046875
0.054,-1.8818359375,-17.4970703125,18.8984375
0.0545,2.8828125,-19.7392578125,16.7763671875
0.055,5.7255859375,-20.66015625,15.0546875
0.0555,8.80859375,-21.140625,12.65234375
0.056,12.2919921875,-20.7001953125,8.96875
0.0565,15.9755859375,-19.8193359375,4.484375
0.057,18.9384765625,-18.09765625,-0.16015625
0.0575,20.98046875,-16.095703125,-4.0439453125
0.058,21.380859375,-13.8134765625,-6.7265625
0.0585,21.5810546875,-10.7705078125,-9.9296875
0.059,21.060546875,-6.6865234375,-13.4931640625
0.0595,20.2197265625,-2.322265625,-17.0166015625
0.06,18.2978515625,2.0419921875,-19.4990234375
0.0605,16.3359375,5.2451171875,-20.7802734375
0.061,13.8134765625,8.248046875,-21.3408203125
0.0615,9.849609375,11.6513671875,-20.900390625
0.062,5.0849609375,15.3349609375,-19.9794921875
0.0625,0.0400390625,18.498046875,-18.2978515625
0.063,-4.244140625,20.4599609375,-16.2958984375
0.0635,-7.0068359375,20.98046875,-14.2939453125
0.064,-10.169921875,21.220703125,-11.611328125
0.0645,-13.853515625,20.5,-7.4072265625
0.065,-17.376953125,19.298828125,-2.8427734375
0.0655,-20.01953125,17.376953125,1.76171875
0.066,-21.5009765625,15.4150390625,5.0849609375
0.0665,-21.8212890625,12.8525390625,7.9677734375
0.067,-21.78125,9.4091796875,11.4111328125
0.0675,-21.1005859375,5.0849609375,15.0947265625
0.068,-19.8994140625,0.6005859375,18.41796875
0.0685,-17.8173828125,-3.68359375,20.5400390625
0.069,-15.6953125,-6.486328125,21.2607421875
0.0695,-12.97265625,-9.5693359375,21.7412109375
0.07,-8.2880859375,-13.373046875,20.9404296875
0.0705,-3.283203125,-16.81640625,19.6591796875
0.071,1.5615234375,-19.4189453125,17.697265625
0.0715,5.28515625,-21.140625,15.85546875
0.072,8.087890625,-21.30078125,13.4931640625
0.0725,11.2109375,-21.4208984375,10.5302734375
0.073,15.1748046875,-20.5,5.9658203125
0.0735,18.4580078125,-18.8984375,1.2412109375
0.074,20.66015625,-16.896484375,-2.9228515625
0.0745,21.5810546875,-14.89453125,-5.8056640625
0.075,21.78125,-12.091796875,-8.8486328125
0.0755,21.4208984375,-8.0078125,-12.572265625
0.076,20.66015625,-3.8837890625,-16.015625
0.0765,19.1787109375,0.6005859375,-18.73828125
0.077,17.216796875,4.404296875,-20.8203125
0.0775,14.6142578125,7.1669921875,-21.060546875
0.078,11.8115234375,10.2099609375,-21.3408203125
0.0785,6.6865234375,14.2138671875,-20.7802734375
0.079,1.76171875,17.4970703125,-18.9384765625
0.0795,-2.6826171875,19.69921875,-16.9765625
0.08,-5.92578125,20.98046875,-15.294921875
0.0805,-8.8486328125,21.1005859375,-12.7724609375
0.081,-12.2119140625,20.740234375,-9.12890625
0.0815,-15.935546875,19.9794921875,-4.884765625
0.082,-19.0185546875,18.1376953125,0.0
0.0825,-20.900390625,16.17578125,3.763671875
0.083,-21.4208984375,13.9736328125,6.40625
0.0835,-21.701171875,11.2109375,9.529296875
0.084,-21.1005859375,6.5263671875,13.5732421875
0.0845,-20.2998046875,2.322265625,16.7763671875
0.085,-18.4580078125,-1.8017578125,19.2587890625
0.0855,-16.6162109375,-5.2451171875,20.9404296875
0.086,-13.8134765625,-8.0078125,21.0205078125
0.0865,-10.4501953125,-11.2509765625,20.9404296875
0.087,-5.525390625,-15.0947265625,20.01953125
0.0875,-0.3603515625,-18.177734375,18.177734375
0.088,3.603515625,-19.939453125,16.2958984375
0.0885,6.4462890625,-20.8203125,14.5341796875
0.089,9.609375,-21.0205078125,11.8515625
0.0895,13.29296875,-20.2197265625,7.4873046875
0.09,16.6962890625,-19.21875,3.443359375
0.0905,19.3388671875,-17.45703125,-1.12109375
0.091,20.8603515625,-15.5751953125,-4.5244140625
0.0915,21.0205078125,-12.97265625,-7.20703125
0.092,21.2607421875,-10.0498046875,-10.3701171875
0.0925,20.5400390625,-5.4853515625,-14.3740234375
0.093,19.4189453125,-1.1611328125,-17.4970703125
0.0935,17.537109375,2.6826171875,-19.4189453125
0.094,15.6953125,5.765625,-20.740234375
0.0945,12.8125,8.728515625,-20.8603515625
0.095,8.408203125,12.4521484375,-20.2998046875
0.0955,4.00390625,15.8154296875,-19.4990234375
0.096,-1.1611328125,18.658203125,-17.4970703125
0.0965,-4.64453125,20.1796875,-15.6953125
0.097,-7.3271484375,20.6201171875,-13.5732421875
0.0975,-10.41015625,20.8603515625,-11.05078125
0.098,-14.57421875,19.859375,-6.0859375
0.0985,-17.697265625,18.4580078125,-1.6416015625
0.099,-19.8994140625,16.6962890625,2.2822265625
0.0995,-21.140625,14.7744140625,5.4052734375
0.1,-21.1005859375,11.8916015625,8.16796875
0.1005,-21.0205078125,8.2880859375,11.7314453125
0.101,-20.3798828125,4.083984375,15.375
0.1015,-18.9384765625,-0.5205078125,18.4580078125
0.102,-16.9365234375,-4.083984375,20.099609375
0.1025,-14.7744140625,-6.8466796875,20.7802734375
0.103,-12.0517578125,-9.8095703125,21.1005859375
0.1035,-6.7265625,-13.8935546875,19.9794921875
0.104,-2.2021484375,-16.736328125,18.6982421875
0.1045,2.2421875,-19.2587890625,16.896484375
0.105,5.60546875,-20.5,15.0947265625
0.1055,8.2880859375,-20.5,12.4921875
0.106,11.451171875,-20.5,9.5693359375
0.1065,15.4150390625,-19.619140625,4.884765625
0.107,18.41796875,-17.8173828125,0.2001953125
0.1075,19.9794921875,-16.015625,-3.1630859375
0.108,20.7802734375,-13.9736328125,-5.92578125
0.1085,20.8203125,-11.2509765625,-8.7685546875
0.109,20.33984375,-6.7666015625,-12.732421875
0.1095,19.5791015625,-2.962890625,-15.8154296875
0.11,18.0576171875,1.28125,-18.5380859375
0.1105,16.1357421875,4.6044921875,-19.939453125
0.111,13.4931640625,7.3271484375,-20.0595703125
0.1115,10.6904296875,10.330078125,-20.419921875
0.112,5.4453125,14.5341796875,-19.3388671875
0.1125,0.640625,17.296875,-17.697265625
0.113,-2.8828125,19.05859375,-16.095703125
0.1135,-5.92578125,20.1396484375,-14.4541015625
0.114,-8.8486328125,20.0595703125,-11.69140625
0.1145,-12.3720703125,19.4990234375,-7.84765625
0.115,-15.8955078125,18.818359375,-3.7236328125
0.1155,-18.578125,16.9365234375,0.8408203125
0.116,-19.8994140625,15.134765625,3.84375
0.1165,-20.2998046875,12.892578125,6.486328125
0.117,-20.5400390625,10.25,9.3291015625
0.1175,-19.8994140625,5.4853515625,13.4931640625
0.118,-18.818359375,1.44140625,16.49609375
0.1185,-17.296875,-2.2822265625,18.578125
0.119,-15.615234375,-5.3251953125,20.0595703125
0.1195,-12.65234375,-8.087890625,19.8994140625
0.12,-9.0888671875,-11.4912109375,19.8193359375
0.1205,-4.32421875,-15.21484375,19.0185546875
0.121,0.6005859375,-17.9775390625,17.0166015625
0.1215,3.763671875,-19.2587890625,15.4951171875
0.122,6.56640625,-20.01953125,13.61328125
0.1225,9.44921875,-20.099609375,11.05078125
0.123,13.4931640625,-19.21875,6.326171875
0.1235,16.65625,-18.1376953125,2.2021484375
0.124,18.9384765625,-16.49609375,-1.76171875
0.1245,20.01953125,-14.6943359375,-4.5244140625
0.125,20.1396484375,-11.9716796875,-7.3271484375
0.1255,20.1796875,-8.888671875,-10.490234375
0.126,19.69921875,-4.5244140625,-14.4140625
0.1265,18.2578125,-0.2001953125,-17.3369140625
0.127,16.576171875,3.123046875,-18.8984375
0.1275,14.734375,6.0859375,-20.0595703125
0.128,11.69140625,8.96875,-20.0595703125
0.1285,6.966796875,12.8525390625,-19.37890625
0.129,2.6025390625,16.095703125,-18.5380859375
0.1295,-2.0419921875,18.6982421875,-16.65625
0.13,-5.0048828125,19.779296875,-14.974609375
0.1305,-7.8876953125,20.099609375,-12.65234375
0.131,-10.970703125,20.1396484375,-9.76953125
0.1315,-15.0947265625,19.1787109375,-4.884765625
0.132,-18.0576171875,17.45703125,-0.3203125
0.1325,-19.8193359375,15.8154296875,3.123046875
0.133,-20.7001953125,13.8134765625,5.92578125
0.1335,-20.740234375,10.8505859375,8.9287109375
0.134,-20.33984375,6.88671875,12.4921875
0.1345,-19.6591796875,2.72265625,15.9755859375
0.135,-18.017578125,-1.7216796875,18.818359375
0.1355,-16.015625,-4.8046875,19.859375
0.136,-13.7734375,-7.6474609375,20.580078125
0.1365,-10.5703125,-10.7705078125,20.5400390625
0.137,-5.1650390625,-14.8544921875,19.37890625
0.1375,-0.5205078125,-17.697265625,17.857421875
0.138,3.443359375,-19.619140625,16.1357421875
0.1385,6.3662109375,-20.5,14.333984375
0.139,9.44921875,-20.419921875,11.37109375
0.1395,12.7724609375,-20.0595703125,7.84765625
0.14,16.4560546875,-19.05859375,3.3232421875
0.1405,19.1787109375,-17.0166015625,-1.361328125
0.141,20.2998046875,-15.2548828125,-4.2041015625
0.1415,20.8603515625,-12.9326171875,-7.0869140625
0.142,20.740234375,-9.8095703125,-10.1298828125
0.1425,20.01953125,-5.28515625,-13.9736328125
0.143,18.978515625,-1.28125,-16.9765625
0.1435,17.296875,2.6826171875,-19.21875
0.144,15.21484375,5.6455078125,-20.1396484375
0.1445,12.412109375,8.5283203125,-20.2998046875
0.145,8.8486328125,11.8916015625,-20.1796875
0.1455,3.6435546875,15.7353515625,-19.0185546875
0.146,-1.28125,18.2978515625,-16.9765625
0.1465,-4.2841796875,19.69921875,-15.4150390625
0.147,-7.20703125,20.3798828125,-13.533203125
0.1475,-10.2099609375,20.1396484375,-10.330078125
0.148,-13.853515625,19.37890625,-6.2861328125
0.1485,-17.0966796875,18.2177734375,-1.9619140625
0.149,-19.4990234375,16.2958984375,2.322265625
0.1495,-20.2197265625,14.3740234375,4.8447265625
0.15,-20.5400390625,11.8115234375,7.8076171875
0.1505,-20.4599609375,8.5283203125,10.970703125
0.151,-19.7392578125,4.00390625,14.814453125
0.1515,-18.2578125,-0.2802734375,17.5771484375
0.152,-16.6962890625,-3.603515625,19.3388671875
0.1525,-14.6943359375,-6.40625,20.2197265625
0.153,-11.4912109375,-9.0888671875,20.099609375
0.1535,-7.3271484375,-12.8125,19.4990234375
0.154,-2.482421875,-16.2958984375,18.337890625
0.1545,2.162109375,-18.578125,16.3359375
0.155,4.8046875,-19.5390625,14.7744140625
0.1555,7.8076171875,-19.939453125,12.65234375
0.156,10.8505859375,-19.8193359375,9.4091796875
0.1565,14.5341796875,-18.9384765625,5.044921875
0.157,17.4169921875,-17.45703125,0.80078125
0.1575,19.37890625,-15.7353515625,-2.8828125
0.158,19.8994140625,-13.7333984375,-5.4052734375
0.1585,20.0595703125,-10.890625,-8.328125
0.159,19.7392578125,-7.20703125,-11.7314453125
0.1595,19.1787109375,-3.0830078125,-15.294921875
0.16,17.45703125,1.12109375,-17.8173828125
0.1605,15.775390625,4.0439453125,-19.0986328125
0.161,13.61328125,6.88671875,-19.8994140625
0.1615,10.2099609375,10.0498046875,-19.69921875
0.162,5.6455078125,13.693359375,-18.9384765625
0.1625,1.0009765625,16.7763671875,-17.5771484375
0.163,-3.0830078125,18.8583984375,-15.8154296875
0.1635,-5.685546875,19.5390625,-14.09375
0.164,-8.6884765625,19.859375,-11.611328125
0.1645,-12.171875,19.458984375,-7.9677734375
0.165,-15.6953125,18.498046875,-3.603515625
0.1655,-18.2978515625,16.7763671875,0.720703125
0.166,-19.8193359375,15.0546875,3.84375
0.1665,-20.33984375,12.8525390625,6.5263671875
0.167,-20.33984375,9.7294921875,9.6494140625
0.1675,-19.779296875,5.60546875,13.2529296875
0.168,-18.8583984375,1.4013671875,16.576171875
0.1685,-17.13671875,-2.72265625,18.8984375
0.169,-15.2548828125,-5.4453125,19.7392578125
0.1695,-12.8525390625,-8.328125,20.33984375
0.17,-8.728515625,-11.8515625,19.8994140625
0.1705,-3.923828125,-15.375,18.818359375
0.171,0.640625,-17.9775390625,17.0166015625
0.1715,4.2041015625,-19.69921875,15.455078125
0.172,6.88671875,-20.099609375,13.4130859375
0.1725,9.9697265625,-20.1396484375,10.5703125
0.173,13.693359375,-19.4990234375,6.40625
0.1735,16.9765625,-18.2177734375,1.9619140625
0.174,19.2587890625,-16.3759765625,-2.2021484375
0.1745,20.2197265625,-14.57421875,-4.8447265625
0.175,20.5400390625,-11.9716796875,-7.6474609375
0.1755,20.33984375,-8.328125,-11.2509765625
0.176,19.69921875,-4.2841796875,-14.6142578125
0.1765,18.3779296875,-0.16015625,-17.4970703125
0.177,16.65625,3.5634765625,-19.5791015625
0.1775,14.3740234375,6.326171875,-20.01953125
0.178,11.6513671875,9.2490234375,-20.2998046875
0.1785,7.046875,13.0927734375,-19.619140625
0.179,2.2822265625,16.416015625,-18.337890625
0.1795,-2.08203125,18.5380859375,-16.49609375
0.18,-5.0849609375,19.859375,-14.9345703125
0.1805,-7.9677734375,20.1396484375,-12.6123046875
0.181,-11.2109375,19.8193359375,-9.2490234375
0.1815,-14.7744140625,19.138671875,-5.125
0.182,-17.77734375,17.45703125,-0.6005859375
0.1825,-19.7392578125,15.6552734375,3.203125
0.183,-20.259765625,13.5732421875,5.685546875
0.1835,-20.5400390625,11.0107421875,8.6484375
0.184,-20.099609375,6.806640625,12.33203125
0.1845,-19.37890625,2.802734375,15.6552734375
0.185,-17.77734375,-1.3212890625,18.0576171875
0.1855,-16.095703125,-4.5244140625,19.779296875
0.186,-13.6533203125,-7.20703125,20.099609375
0.1865,-10.41015625,-10.2900390625,19.9794921875
0.187,-5.845703125,-13.9736328125,19.2587890625
0.1875,-0.9208984375,-17.13671875,17.6171875
0.188,3.04296875,-18.9384765625,15.85546875
0.1885,5.8056640625,-19.8994140625,14.1337890625
0.189,8.6884765625,-20.1396484375,11.8115234375
0.1895,12.2919921875,-19.4990234375,7.6875
0.19,15.5751953125,-18.6982421875,3.763671875
0.1905,18.2177734375,-17.0166015625,-0.5205078125
0.191,19.8994140625,-15.2548828125,-3.84375
0.1915,20.1396484375,-12.8525390625,-6.4462890625
0.192,20.33984375,-10.0498046875,-9.4892578125
0.1925,19.8193359375,-5.765625,-13.3330078125
0.193,18.8583984375,-1.6416015625,-16.5361328125
0.1935,17.0966796875,2.2421875,-18.578125
0.194,15.375,5.125,-19.779296875
0.1945,12.7724609375,8.0078125,-20.1396484375
0.195,8.5283203125,11.6513671875,-19.6591796875
0.1955,4.2841796875,15.0146484375,-18.8984375
0.196,-0.6806640625,17.857421875,-17.0966796875
0.1965,-4.2041015625,19.4990234375,-15.375
0.197,-6.806640625,19.859375,-13.4130859375
0.1975,-9.76953125,20.1796875,-10.970703125
0.198,-13.8134765625,19.3388671875,-6.2861328125
0.1985,-16.8564453125,18.0576171875,-1.9619140625
0.199,-19.0986328125,16.3359375,1.921875
0.1995,-20.4599609375,14.57421875,4.96484375
0.2,-20.5,11.8515625,7.6875
0.2005,-20.5,8.328125,11.2109375
0.201,-19.8994140625,4.2041015625,14.654296875
0.2015,-18.5380859375,-0.2001953125,17.77734375
0.202,-16.65625,-3.763671875,19.4990234375
0.2025,-14.6142578125,-6.4462890625,20.1396484375
0.203,-12.01171875,-9.3291015625,20.5400390625
0.2035,-6.8466796875,-13.3330078125,19.5390625
0.204,-2.40234375,-16.3759765625,18.337890625
0.2045,1.921875,-18.658203125,16.6162109375
0.205,5.2451171875,-20.1396484375,14.974609375
0.2055,7.9677734375,-20.1396484375,12.4921875
0.206,11.0107421875,-20.099609375,9.5693359375
0.2065,14.9345703125,-19.3388671875,5.0849609375
0.207,17.9375,-17.6171875,0.48046875
0.2075,19.6591796875,-15.8955078125,-3.0029296875
0.208,20.7001953125,-13.8134765625,-5.765625
0.2085,20.6201171875,-11.2509765625,-8.6083984375
0.209,20.099609375,-6.88671875,-12.5322265625
0.2095,19.37890625,-3.04296875,-15.53515625
0.21,17.9375,1.12109375,-18.2177734375
0.2105,16.0556640625,4.484375,-19.859375
0.211,13.453125,7.1669921875,-19.939453125
0.2115,10.6904296875,10.2099609375,-20.259765625
0.212,5.4853515625,14.25390625,-19.298828125
0.2125,0.6806640625,17.1767578125,-17.6572265625
0.213,-2.962890625,18.9384765625,-16.015625
0.2135,-6.0458984375,20.1396484375,-14.3740234375
0.214,-8.9287109375,20.099609375,-11.6513671875
0.2145,-12.4521484375,19.5390625,-7.767578125
0.215,-15.8955078125,18.818359375,-3.763671875
0.2155,-18.658203125,16.9765625,0.8408203125
0.216,-20.0595703125,15.21484375,4.00390625
0.2165,-20.4599609375,12.8525390625,6.646484375
0.217,-20.740234375,10.169921875,9.529296875
0.2175,-20.01953125,5.4052734375,13.7333984375
