wavelength,x,y,z
0.0,-3.913818359375,-3.473388671875,5.935791015625
0.0005,-4.634521484375,-2.592529296875,6.015869140625
0.001,-4.994873046875,-1.791748046875,5.855712890625
0.0015,-5.155029296875,-0.830810546875,5.335205078125
0.002,-5.195068359375,0.290283203125,4.614501953125
0.0025,-5.275146484375,1.411376953125,3.813720703125
0.003,-5.195068359375,2.492431640625,2.892822265625
0.0035,-4.994873046875,3.373291015625,1.971923828125
0.004,-4.554443359375,4.013916015625,1.131103515625
0.0045,-3.833740234375,4.454345703125,0.050048828125
0.005,-2.952880859375,4.934814453125,-1.271240234375
0.0055,-1.991943359375,5.255126953125,-2.512451171875
0.006,-1.191162109375,5.455322265625,-3.553466796875
0.0065,-0.430419921875,5.575439453125,-4.394287109375
0.007,0.690673828125,5.175048828125,-5.074951171875
0.0075,1.971923828125,4.334228515625,-5.635498046875
0.008,3.133056640625,3.373291015625,-6.075927734375
0.0085,3.973876953125,2.292236328125,-6.196044921875
0.009,4.614501953125,1.411376953125,-6.156005859375
0.0095,4.854736328125,0.610595703125,-5.875732421875
0.01,4.934814453125,-0.470458984375,-5.275146484375
0.0105,4.974853515625,-1.591552734375,-4.394287109375
0.011,4.934814453125,-2.752685546875,-3.433349609375
0.0115,4.814697265625,-3.793701171875,-2.552490234375
0.012,4.534423828125,-4.554443359375,-1.631591796875
0.0125,3.893798828125,-5.074951171875,-0.630615234375
0.013,3.012939453125,-5.435302734375,0.650634765625
0.0135,2.052001953125,-5.835693359375,1.931884765625
0.014,1.051025390625,-6.075927734375,3.133056640625
0.0145,0.290283203125,-6.276123046875,4.053955078125
0.015,-0.630615234375,-6.156005859375,4.814697265625
0.0155,-1.711669921875,-5.555419921875,5.415283203125
0.016,-3.032958984375,-4.514404296875,5.895751953125
0.0165,-4.114013671875,-3.513427734375,6.135986328125
0.017,-4.874755859375,-2.512451171875,6.135986328125
0.0175,-5.275146484375,-1.631591796875,6.055908203125
0.018,-5.395263671875,-0.710693359375,5.535400390625
0.0185,-5.355224609375,0.450439453125,4.654541015625
0.019,-5.395263671875,1.611572265625,3.813720703125
0.0195,-5.275146484375,2.812744140625,2.732666015625
0.02,-5.074951171875,3.693603515625,1.851806640625
0.0205,-4.634521484375,4.334228515625,0.970947265625
0.021,-3.913818359375,4.694580078125,0.010009765625
0.0215,-2.872802734375,5.054931640625,-1.431396484375
0.022,-1.911865234375,5.455322265625,-2.752685546875
0.0225,-0.990966796875,5.575439453125,-3.833740234375
0.023,-0.230224609375,5.695556640625,-4.674560546875
0.0235,0.810791015625,5.375244140625,-5.315185546875
0.024,2.052001953125,4.494384765625,-5.835693359375
0.0245,3.333251953125,3.373291015625,-6.316162109375
0.025,4.334228515625,2.252197265625,-6.436279296875
0.0255,4.854736328125,1.331298828125,-6.316162109375
0.026,5.175048828125,0.490478515625,-6.115966796875
0.0265,5.215087890625,-0.590576171875,-5.435302734375
0.027,5.094970703125,-1.791748046875,-4.394287109375
0.0275,5.094970703125,-3.032958984375,-3.393310546875
0.028,4.934814453125,-4.033935546875,-2.432373046875
0.0285,4.614501953125,-4.874755859375,-1.471435546875
0.029,4.053955078125,-5.395263671875,-0.590576171875
0.0295,3.133056640625,-5.675537109375,0.650634765625
0.03,2.011962890625,-6.075927734375,2.052001953125
0.0305,0.890869140625,-6.276123046875,3.373291015625
0.031,0.090087890625,-6.356201171875,4.334228515625
0.0315,-0.790771484375,-6.356201171875,5.094970703125
0.032,-1.831787109375,-5.755615234375,5.655517578125
0.0325,-3.193115234375,-4.674560546875,6.135986328125
0.033,-4.354248046875,-3.633544921875,6.456298828125
0.0335,-5.195068359375,-2.432373046875,6.456298828125
0.034,-5.675537109375,-1.551513671875,6.336181640625
0.0345,-5.755615234375,-0.670654296875,5.855712890625
0.035,-5.715576171875,0.530517578125,5.014892578125
0.0355,-5.635498046875,1.851806640625,3.853759765625
0.036,-5.515380859375,3.133056640625,2.772705078125
0.0365,-5.275146484375,4.053955078125,1.771728515625
0.037,-4.834716796875,4.774658203125,0.850830078125
0.0375,-4.073974609375,5.094970703125,-0.230224609375
0.038,-2.912841796875,5.375244140625,-1.591552734375
0.0385,-1.831787109375,5.735595703125,-3.072998046875
0.039,-0.710693359375,5.855712890625,-4.274169921875
0.0395,0.170166015625,5.895751953125,-5.155029296875
0.04,1.010986328125,5.655517578125,-5.755615234375
0.0405,2.252197265625,4.774658203125,-6.356201171875
0.041,3.773681640625,3.453369140625,-6.756591796875
0.0415,4.814697265625,2.252197265625,-6.916748046875
0.042,5.415283203125,1.131103515625,-6.756591796875
0.0425,5.735595703125,0.250244140625,-6.436279296875
0.043,5.695556640625,-0.830810546875,-5.715576171875
0.0435,5.535400390625,-2.152099609375,-4.554443359375
0.044,5.415283203125,-3.513427734375,-3.353271484375
0.0445,5.175048828125,-4.674560546875,-2.192138671875
0.045,4.814697265625,-5.475341796875,-1.191162109375
0.0455,4.214111328125,-5.995849609375,-0.310302734375
0.046,3.173095703125,-6.196044921875,0.970947265625
0.0465,1.811767578125,-6.436279296875,2.532470703125
0.047,0.570556640625,-6.676513671875,3.973876953125
0.0475,-0.510498046875,-6.636474609375,4.934814453125
0.048,-1.231201171875,-6.556396484375,5.695556640625
0.0485,-2.192138671875,-6.035888671875,6.216064453125
0.049,-3.593505859375,-4.834716796875,6.656494140625
0.0495,-4.834716796875,-3.513427734375,6.896728515625
0.05,-5.755615234375,-2.272216796875,6.896728515625
0.0505,-6.196044921875,-1.231201171875,6.576416015625
0.051,-6.276123046875,-0.350341796875,6.135986328125
0.0515,-6.115966796875,0.810791015625,5.175048828125
0.052,-5.875732421875,2.212158203125,3.893798828125
0.0525,-5.715576171875,3.493408203125,2.692626953125
0.053,-5.395263671875,4.494384765625,1.571533203125
0.0535,-4.914794921875,5.135009765625,0.610595703125
0.054,-4.194091796875,5.495361328125,-0.430419921875
0.0545,-3.072998046875,5.695556640625,-1.631591796875
0.055,-1.751708984375,5.935791015625,-3.193115234375
0.0555,-0.510498046875,6.055908203125,-4.514404296875
0.056,0.410400390625,6.015869140625,-5.395263671875
0.0565,1.131103515625,5.815673828125,-6.035888671875
0.057,2.252197265625,5.054931640625,-6.476318359375
0.0575,3.693603515625,3.733642578125,-6.876708984375
0.058,4.814697265625,2.532470703125,-7.076904296875
0.0585,5.575439453125,1.331298828125,-6.956787109375
0.059,5.895751953125,0.330322265625,-6.676513671875
0.0595,5.895751953125,-0.630615234375,-6.115966796875
0.06,5.735595703125,-1.791748046875,-5.114990234375
0.0605,5.535400390625,-3.153076171875,-3.833740234375
0.061,5.335205078125,-4.434326171875,-2.592529296875
0.0615,4.974853515625,-5.315185546875,-1.511474609375
0.062,4.494384765625,-5.915771484375,-0.590576171875
0.0625,3.573486328125,-6.196044921875,0.570556640625
0.063,2.372314453125,-6.396240234375,1.931884765625
0.0635,1.091064453125,-6.676513671875,3.453369140625
0.064,-0.150146484375,-6.676513671875,4.574462890625
0.0645,-0.990966796875,-6.676513671875,5.415283203125
0.065,-1.711669921875,-6.396240234375,5.975830078125
0.0655,-2.912841796875,-5.435302734375,6.456298828125
0.066,-4.314208984375,-4.114013671875,6.816650390625
0.0665,-5.395263671875,-2.872802734375,6.896728515625
0.067,-5.955810546875,-1.751708984375,6.696533203125
0.0675,-6.236083984375,-0.830810546875,6.416259765625
0.068,-6.115966796875,0.210205078125,5.695556640625
0.0685,-5.955810546875,1.451416015625,4.534423828125
0.069,-5.835693359375,2.812744140625,3.373291015625
0.0695,-5.635498046875,3.973876953125,2.172119140625
0.07,-5.195068359375,4.814697265625,1.131103515625
0.0705,-4.634521484375,5.375244140625,0.250244140625
0.071,-3.713623046875,5.575439453125,-0.990966796875
0.0715,-2.392333984375,5.815673828125,-2.472412109375
0.072,-1.151123046875,6.095947265625,-3.913818359375
0.0725,0.010009765625,6.015869140625,-4.994873046875
0.073,0.730712890625,6.015869140625,-5.755615234375
0.0735,1.651611328125,5.535400390625,-6.276123046875
0.074,3.093017578125,4.334228515625,-6.756591796875
0.0745,4.414306640625,3.052978515625,-7.076904296875
0.075,5.335205078125,1.811767578125,-7.076904296875
0.0755,5.855712890625,0.690673828125,-6.836669921875
0.076,5.975830078125,-0.310302734375,-6.436279296875
0.0765,5.855712890625,-1.351318359375,-5.515380859375
0.077,5.695556640625,-2.832763671875,-4.234130859375
0.0775,5.535400390625,-4.114013671875,-2.992919921875
0.078,5.215087890625,-5.155029296875,-1.831787109375
0.0785,4.774658203125,-5.915771484375,-0.830810546875
0.079,3.973876953125,-6.316162109375,0.250244140625
0.0795,2.812744140625,-6.476318359375,1.531494140625
0.08,1.411376953125,-6.756591796875,3.173095703125
0.0805,0.130126953125,-6.876708984375,4.534423828125
0.081,-0.910888671875,-6.796630859375,5.455322265625
0.0815,-1.591552734375,-6.596435546875,6.095947265625
0.082,-2.712646484375,-5.755615234375,6.576416015625
0.0825,-4.234130859375,-4.354248046875,6.976806640625
0.083,-5.395263671875,-3.113037109375,7.136962890625
0.0835,-6.115966796875,-1.871826171875,6.976806640625
0.084,-6.436279296875,-0.830810546875,6.616455078125
0.0845,-6.396240234375,0.130126953125,5.975830078125
0.085,-6.156005859375,1.291259765625,4.934814453125
0.0855,-5.955810546875,2.732666015625,3.573486328125
0.086,-5.755615234375,4.013916015625,2.292236328125
0.0865,-5.315185546875,4.854736328125,1.211181640625
0.087,-4.754638671875,5.415283203125,0.250244140625
0.0875,-3.833740234375,5.655517578125,-0.830810546875
0.088,-2.552490234375,5.815673828125,-2.272216796875
0.0885,-1.311279296875,6.055908203125,-3.713623046875
0.089,0.010009765625,6.055908203125,-4.874755859375
0.0895,0.730712890625,6.015869140625,-5.675537109375
0.09,1.491455078125,5.655517578125,-6.236083984375
0.0905,2.692626953125,4.774658203125,-6.676513671875
0.091,4.093994140625,3.373291015625,-6.996826171875
0.0915,5.094970703125,2.172119140625,-7.076904296875
0.092,5.655517578125,1.010986328125,-6.796630859375
0.0925,5.855712890625,0.130126953125,-6.516357421875
0.093,5.775634765625,-0.910888671875,-5.795654296875
0.0935,5.575439453125,-2.112060546875,-4.674560546875
0.094,5.415283203125,-3.353271484375,-3.553466796875
0.0945,5.175048828125,-4.514404296875,-2.352294921875
0.095,4.814697265625,-5.315185546875,-1.351318359375
0.0955,4.254150390625,-5.835693359375,-0.470458984375
0.096,3.333251953125,-6.115966796875,0.650634765625
0.0965,2.132080078125,-6.356201171875,2.052001953125
0.097,0.970947265625,-6.596435546875,3.493408203125
0.0975,-0.190185546875,-6.556396484375,4.494384765625
0.098,-0.950927734375,-6.556396484375,5.295166015625
0.0985,-1.751708984375,-6.156005859375,5.855712890625
0.099,-2.952880859375,-5.195068359375,6.296142578125
0.0995,-4.234130859375,-4.033935546875,6.656494140625
0.1,-5.195068359375,-2.872802734375,6.736572265625
0.1005,-5.755615234375,-1.791748046875,6.536376953125
0.101,-5.955810546875,-0.990966796875,6.216064453125
0.1015,-5.915771484375,0.130126953125,5.495361328125
0.102,-5.755615234375,1.331298828125,4.414306640625
0.1025,-5.715576171875,2.612548828125,3.373291015625
0.103,-5.475341796875,3.693603515625,2.292236328125
0.1035,-5.114990234375,4.494384765625,1.291259765625
0.104,-4.514404296875,4.974853515625,0.370361328125
0.1045,-3.593505859375,5.255126953125,-0.830810546875
0.105,-2.472412109375,5.615478515625,-2.272216796875
0.1055,-1.271240234375,5.815673828125,-3.633544921875
0.106,-0.390380859375,5.895751953125,-4.594482421875
0.1065,0.490478515625,5.855712890625,-5.355224609375
0.107,1.491455078125,5.255126953125,-5.915771484375
0.1075,2.852783203125,4.134033203125,-6.396240234375
0.108,4.013916015625,3.052978515625,-6.716552734375
0.1085,4.854736328125,1.931884765625,-6.716552734375
0.109,5.375244140625,0.970947265625,-6.516357421875
0.1095,5.455322265625,0.090087890625,-6.075927734375
0.11,5.415283203125,-1.031005859375,-5.275146484375
0.1105,5.295166015625,-2.272216796875,-4.194091796875
0.111,5.175048828125,-3.553466796875,-3.072998046875
0.1115,4.934814453125,-4.514404296875,-2.072021484375
0.112,4.534423828125,-5.195068359375,-1.151123046875
0.1125,3.813720703125,-5.635498046875,-0.190185546875
0.113,2.812744140625,-5.915771484375,1.131103515625
0.1135,1.651611328125,-6.236083984375,2.532470703125
0.114,0.610595703125,-6.316162109375,3.693603515625
0.1145,-0.310302734375,-6.396240234375,4.574462890625
0.115,-1.031005859375,-6.276123046875,5.255126953125
0.1155,-2.072021484375,-5.635498046875,5.735595703125
0.116,-3.393310546875,-4.514404296875,6.176025390625
0.1165,-4.474365234375,-3.393310546875,6.416259765625
0.117,-5.114990234375,-2.312255859375,6.336181640625
0.1175,-5.515380859375,-1.471435546875,6.135986328125
0.118,-5.595458984375,-0.630615234375,5.615478515625
0.1185,-5.515380859375,0.530517578125,4.774658203125
0.119,-5.435302734375,1.691650390625,3.853759765625
0.1195,-5.315185546875,2.852783203125,2.812744140625
0.12,-5.074951171875,3.693603515625,1.931884765625
0.1205,-4.674560546875,4.334228515625,1.010986328125
0.121,-3.953857421875,4.734619140625,0.050048828125
0.1215,-2.992919921875,5.054931640625,-1.311279296875
0.122,-2.031982421875,5.455322265625,-2.592529296875
0.1225,-1.071044921875,5.575439453125,-3.633544921875
0.123,-0.350341796875,5.695556640625,-4.514404296875
0.1235,0.610595703125,5.455322265625,-5.155029296875
0.124,1.771728515625,4.734619140625,-5.715576171875
0.1245,2.972900390625,3.733642578125,-6.156005859375
0.125,3.973876953125,2.692626953125,-6.356201171875
0.1255,4.614501953125,1.691650390625,-6.276123046875
0.126,5.014892578125,0.890869140625,-6.156005859375
0.1265,5.094970703125,0.010009765625,-5.595458984375
0.127,5.054931640625,-1.231201171875,-4.754638671875
0.1275,5.094970703125,-2.352294921875,-3.873779296875
0.128,4.934814453125,-3.433349609375,-2.912841796875
0.1285,4.694580078125,-4.354248046875,-2.031982421875
0.129,4.254150390625,-4.914794921875,-1.151123046875
0.1295,3.493408203125,-5.275146484375,0.010009765625
0.13,2.572509765625,-5.715576171875,1.251220703125
0.1305,1.571533203125,-5.995849609375,2.492431640625
0.131,0.690673828125,-6.156005859375,3.493408203125
0.1315,0.010009765625,-6.276123046875,4.334228515625
0.132,-1.071044921875,-5.915771484375,4.974853515625
0.1325,-2.272216796875,-5.074951171875,5.495361328125
0.133,-3.393310546875,-4.194091796875,5.935791015625
0.1335,-4.314208984375,-3.153076171875,6.095947265625
0.134,-4.914794921875,-2.272216796875,6.095947265625
0.1345,-5.195068359375,-1.431396484375,5.775634765625
0.135,-5.275146484375,-0.550537109375,5.255126953125
0.1355,-5.275146484375,0.650634765625,4.454345703125
0.136,-5.275146484375,1.811767578125,3.533447265625
0.1365,-5.155029296875,2.772705078125,2.692626953125
0.137,-4.874755859375,3.573486328125,1.771728515625
0.1375,-4.434326171875,4.134033203125,0.890869140625
0.138,-3.553466796875,4.534423828125,-0.350341796875
0.1385,-2.792724609375,5.054931640625,-1.551513671875
0.139,-1.791748046875,5.295166015625,-2.712646484375
0.1395,-1.031005859375,5.495361328125,-3.713623046875
0.14,-0.270263671875,5.495361328125,-4.514404296875
0.1405,0.890869140625,5.054931640625,-5.155029296875
0.141,2.172119140625,4.174072265625,-5.715576171875
0.1415,3.253173828125,3.213134765625,-6.035888671875
0.142,4.013916015625,2.252197265625,-6.115966796875
0.1425,4.574462890625,1.411376953125,-6.115966796875
0.143,4.814697265625,0.610595703125,-5.755615234375
0.1435,4.854736328125,-0.510498046875,-5.074951171875
0.144,4.934814453125,-1.631591796875,-4.354248046875
0.1445,4.934814453125,-2.832763671875,-3.393310546875
0.145,4.774658203125,-3.753662109375,-2.512451171875
0.1455,4.494384765625,-4.514404296875,-1.631591796875
0.146,3.853759765625,-4.954833984375,-0.670654296875
0.1465,2.972900390625,-5.395263671875,0.610595703125
0.147,2.052001953125,-5.795654296875,1.931884765625
0.1475,1.131103515625,-6.035888671875,3.012939453125
0.148,0.370361328125,-6.236083984375,3.933837890625
0.1485,-0.590576171875,-6.075927734375,4.654541015625
0.149,-1.711669921875,-5.395263671875,5.255126953125
0.1495,-2.912841796875,-4.514404296875,5.735595703125
0.15,-3.953857421875,-3.513427734375,5.975830078125
0.1505,-4.674560546875,-2.552490234375,6.015869140625
0.151,-5.074951171875,-1.791748046875,5.895751953125
0.1515,-5.155029296875,-0.830810546875,5.375244140625
0.152,-5.195068359375,0.290283203125,4.614501953125
0.1525,-5.275146484375,1.411376953125,3.813720703125
0.153,-5.195068359375,2.492431640625,2.892822265625
0.1535,-4.994873046875,3.413330078125,2.011962890625
0.154,-4.594482421875,4.013916015625,1.131103515625
0.1545,-3.833740234375,4.494384765625,0.130126953125
0.155,-2.992919921875,4.854736328125,-1.231201171875
0.1555,-2.031982421875,5.255126953125,-2.512451171875
0.156,-1.231201171875,5.495361328125,-3.513427734375
0.1565,-0.510498046875,5.575439453125,-4.354248046875
0.157,0.610595703125,5.175048828125,-5.034912109375
0.1575,1.891845703125,4.334228515625,-5.635498046875
0.158,3.052978515625,3.453369140625,-6.035888671875
0.1585,3.933837890625,2.412353515625,-6.196044921875
0.159,4.534423828125,1.531494140625,-6.156005859375
0.1595,4.814697265625,0.730712890625,-5.915771484375
0.16,4.894775390625,-0.310302734375,-5.275146484375
0.1605,4.934814453125,-1.471435546875,-4.474365234375
0.161,4.934814453125,-2.632568359375,-3.553466796875
0.1615,4.814697265625,-3.633544921875,-2.632568359375
0.162,4.534423828125,-4.434326171875,-1.791748046875
0.1625,3.973876953125,-4.914794921875,-0.830810546875
0.163,3.133056640625,-5.315185546875,0.410400390625
0.1635,2.252197265625,-5.755615234375,1.651611328125
0.164,1.251220703125,-5.995849609375,2.892822265625
0.1645,0.450439453125,-6.196044921875,3.853759765625
0.165,-0.430419921875,-6.156005859375,4.614501953125
0.1655,-1.471435546875,-5.635498046875,5.215087890625
0.166,-2.752685546875,-4.674560546875,5.735595703125
0.1665,-3.873779296875,-3.713623046875,6.095947265625
0.167,-4.674560546875,-2.672607421875,6.095947265625
0.1675,-5.114990234375,-1.871826171875,6.055908203125
0.168,-5.275146484375,-0.990966796875,5.575439453125
0.1685,-5.275146484375,0.130126953125,4.814697265625
0.169,-5.315185546875,1.251220703125,3.973876953125
0.1695,-5.275146484375,2.492431640625,3.012939453125
0.17,-5.114990234375,3.373291015625,2.092041015625
0.1705,-4.754638671875,4.093994140625,1.251220703125
0.171,-4.033935546875,4.494384765625,0.290283203125
0.1715,-3.072998046875,4.854736328125,-1.111083984375
0.172,-2.192138671875,5.375244140625,-2.432373046875
0.1725,-1.231201171875,5.495361328125,-3.553466796875
0.173,-0.510498046875,5.695556640625,-4.434326171875
0.1735,0.490478515625,5.415283203125,-5.114990234375
0.174,1.771728515625,4.614501953125,-5.715576171875
0.1745,3.052978515625,3.613525390625,-6.156005859375
0.175,4.093994140625,2.532470703125,-6.396240234375
0.1755,4.734619140625,1.531494140625,-6.356201171875
0.176,5.094970703125,0.730712890625,-6.115966796875
0.1765,5.094970703125,-0.390380859375,-5.515380859375
0.177,5.054931640625,-1.591552734375,-4.554443359375
0.1775,5.094970703125,-2.712646484375,-3.593505859375
0.178,4.974853515625,-3.833740234375,-2.592529296875
0.1785,4.654541015625,-4.674560546875,-1.671630859375
0.179,4.134033203125,-5.235107421875,-0.790771484375
0.1795,3.253173828125,-5.555419921875,0.450439453125
0.18,2.212158203125,-5.915771484375,1.811767578125
0.1805,1.091064453125,-6.236083984375,3.173095703125
0.181,0.250244140625,-6.316162109375,4.134033203125
0.1815,-0.590576171875,-6.356201171875,4.934814453125
0.182,-1.591552734375,-5.795654296875,5.495361328125
0.1825,-2.992919921875,-4.754638671875,6.015869140625
0.183,-4.154052734375,-3.673583984375,6.376220703125
0.1835,-5.034912109375,-2.552490234375,6.416259765625
0.184,-5.515380859375,-1.631591796875,6.256103515625
0.1845,-5.635498046875,-0.830810546875,5.815673828125
0.185,-5.635498046875,0.290283203125,5.054931640625
0.1855,-5.555419921875,1.611572265625,3.973876953125
0.186,-5.475341796875,2.892822265625,2.852783203125
0.1865,-5.275146484375,3.853759765625,1.931884765625
0.187,-4.874755859375,4.614501953125,0.970947265625
0.1875,-4.154052734375,4.974853515625,0.010009765625
0.188,-3.032958984375,5.255126953125,-1.431396484375
