wavelength,x,y,z
0.0,9.4091796875,-10.25,0.6806640625
0.0005,7.6875,-10.490234375,2.6826171875
0.001,5.365234375,-9.9296875,4.404296875
0.0015,3.4033203125,-10.08984375,6.4462890625
0.002,0.9609375,-9.4892578125,8.4482421875
0.0025,-0.80078125,-8.4482421875,8.96875
0.003,-2.0419921875,-8.2880859375,10.0498046875
0.0035,-4.244140625,-6.166015625,10.1298828125
0.004,-6.2060546875,-4.00390625,9.8896484375
0.0045,-8.9287109375,-1.6015625,10.169921875
0.005,-10.08984375,0.80078125,8.96875
0.0055,-10.6103515625,1.841796875,8.48828125
0.006,-11.4111328125,3.5234375,7.5673828125
0.0065,-11.05078125,5.60546875,5.044921875
0.007,-10.890625,7.4873046875,3.0029296875
0.0075,-10.890625,9.7294921875,0.720703125
0.008,-9.2890625,9.8896484375,-1.1611328125
0.0085,-9.0087890625,10.41015625,-2.0419921875
0.009,-7.0068359375,10.4501953125,-4.1640625
0.0095,-4.5244140625,9.76953125,-5.9658203125
0.01,-2.40234375,9.9296875,-8.1279296875
0.0105,0.16015625,9.208984375,-9.8896484375
0.011,1.5615234375,8.087890625,-10.08984375
0.0115,2.802734375,7.6875,-10.890625
0.012,5.1650390625,5.28515625,-10.890625
0.0125,7.046875,3.04296875,-10.5302734375
0.013,9.7294921875,0.560546875,-10.6904296875
0.0135,10.5703125,-1.6015625,-9.44921875
0.014,10.9306640625,-2.482421875,-8.888671875
0.0145,11.53125,-4.3642578125,-7.607421875
0.015,11.130859375,-6.40625,-5.125
0.0155,10.9306640625,-8.248046875,-3.04296875
0.016,10.7705078125,-10.2900390625,-0.7607421875
0.0165,9.0888671875,-10.2099609375,0.9208984375
0.017,8.6884765625,-10.650390625,1.76171875
0.0175,6.3662109375,-10.6103515625,4.00390625
0.018,3.9638671875,-9.9296875,5.8056640625
0.0185,1.681640625,-9.9296875,8.1279296875
0.019,-0.720703125,-9.0087890625,9.529296875
0.0195,-1.8818359375,-8.0478515625,9.609375
0.02,-3.283203125,-7.287109375,10.2099609375
0.0205,-5.8056640625,-4.7646484375,10.25
0.021,-7.52734375,-2.642578125,9.849609375
0.0215,-10.0498046875,-0.240234375,9.9296875
0.022,-10.650390625,1.76171875,8.6083984375
0.0225,-10.9306640625,2.72265625,7.927734375
0.023,-11.4111328125,4.884765625,6.2060546875
0.0235,-10.970703125,6.7666015625,3.8037109375
0.024,-10.7705078125,8.568359375,1.76171875
0.0245,-10.41015625,10.330078125,-0.5205078125
0.025,-8.728515625,10.0498046875,-1.9619140625
0.0255,-8.087890625,10.330078125,-2.9228515625
0.026,-5.525390625,10.25,-5.4052734375
0.0265,-3.283203125,9.6494140625,-6.966796875
0.027,-0.9609375,9.609375,-9.2490234375
0.0275,1.28125,8.6083984375,-10.330078125
0.028,2.2822265625,7.607421875,-10.330078125
0.0285,4.00390625,6.40625,-10.890625
0.029,6.5263671875,3.84375,-10.810546875
0.0295,8.1279296875,1.76171875,-10.25
0.03,10.3701171875,-0.5205078125,-10.330078125
0.0305,10.810546875,-2.322265625,-8.9287109375
0.031,11.0107421875,-3.36328125,-8.0478515625
0.0315,11.37109375,-5.7255859375,-6.0859375
0.032,10.8505859375,-7.3671875,-3.84375
0.0325,10.5302734375,-8.96875,-1.9619140625
0.033,10.08984375,-10.490234375,0.240234375
0.0335,8.2880859375,-10.1298828125,1.5615234375
0.034,7.4072265625,-10.2900390625,2.72265625
0.0345,4.7646484375,-10.2099609375,5.28515625
0.035,2.7626953125,-9.5693359375,6.6865234375
0.0355,0.560546875,-9.4892578125,8.80859375
0.036,-1.521484375,-8.408203125,9.6494140625
0.0365,-2.6025390625,-7.3271484375,9.609375
0.037,-4.64453125,-5.765625,10.08984375
0.0375,-6.9267578125,-3.36328125,9.9296875
0.038,-8.3681640625,-1.28125,9.2890625
0.0385,-10.330078125,0.6806640625,9.3291015625
0.039,-10.6103515625,2.5224609375,7.767578125
0.0395,-10.73046875,3.5634765625,6.806640625
0.04,-10.970703125,6.005859375,4.6044921875
0.0405,-10.4501953125,7.3671875,2.642578125
0.041,-10.1298828125,8.80859375,0.80078125
0.0415,-9.529296875,10.08984375,-1.2412109375
0.042,-7.767578125,9.689453125,-2.5224609375
0.0425,-6.646484375,9.849609375,-3.84375
0.043,-4.083984375,9.7294921875,-6.24609375
0.0435,-2.162109375,9.0888671875,-7.52734375
0.044,0.0,8.96875,-9.4091796875
0.0445,1.841796875,7.8076171875,-10.0498046875
0.045,2.9228515625,6.6865234375,-10.0498046875
0.0455,5.2451171875,4.8046875,-10.4501953125
0.046,7.3271484375,2.5224609375,-10.25
0.0465,8.6484375,0.6005859375,-9.609375
0.047,10.3701171875,-1.1611328125,-9.689453125
0.0475,10.490234375,-2.9228515625,-8.0078125
0.048,10.6103515625,-4.1240234375,-6.88671875
0.0485,10.8505859375,-6.6064453125,-4.6845703125
0.049,10.2099609375,-7.84765625,-2.72265625
0.0495,9.9697265625,-9.208984375,-1.1611328125
0.05,9.208984375,-10.1298828125,0.80078125
0.0505,7.3671875,-9.6494140625,2.162109375
0.051,5.92578125,-9.8095703125,3.763671875
0.0515,3.5234375,-9.689453125,6.0859375
0.052,1.5615234375,-9.0087890625,7.287109375
0.0525,-0.3203125,-8.96875,8.96875
0.053,-2.2021484375,-7.6474609375,9.529296875
0.0535,-3.5234375,-6.326171875,9.529296875
0.054,-6.0458984375,-4.2041015625,9.9296875
0.0545,-7.9677734375,-1.9619140625,9.529296875
0.055,-9.12890625,0.0400390625,8.80859375
0.0555,-10.650390625,1.521484375,8.80859375
0.056,-10.650390625,3.443359375,6.88671875
0.0565,-10.650390625,4.8046875,5.4052734375
0.057,-10.9306640625,7.3271484375,3.203125
0.0575,-10.0498046875,8.3681640625,1.12109375
0.058,-9.7294921875,9.529296875,-0.3203125
0.0585,-8.728515625,10.25,-2.1220703125
0.059,-6.646484375,9.7294921875,-3.68359375
0.0595,-5.0048828125,9.8095703125,-5.4453125
0.06,-2.5625,9.6494140625,-7.7275390625
0.0605,-0.6005859375,8.6884765625,-8.6884765625
0.061,1.0810546875,8.6484375,-10.169921875
0.0615,3.04296875,7.046875,-10.5302734375
0.062,4.64453125,5.3251953125,-10.3701171875
0.0625,7.287109375,3.04296875,-10.73046875
0.063,9.0888671875,0.6005859375,-10.08984375
0.0635,9.9296875,-1.041015625,-9.3291015625
0.064,11.1708984375,-2.3623046875,-9.2490234375
0.0645,11.05078125,-4.4443359375,-7.046875
0.065,10.890625,-6.1259765625,-5.2451171875
0.0655,11.2109375,-8.6083984375,-3.0830078125
0.066,9.9697265625,-9.369140625,-0.880859375
0.0665,9.609375,-10.2099609375,0.400390625
0.067,8.408203125,-10.7705078125,2.2421875
0.0675,6.005859375,-10.08984375,3.9638671875
0.068,4.1240234375,-10.1298828125,5.8857421875
0.0685,1.6015625,-9.8896484375,8.16796875
0.069,-0.4404296875,-8.6884765625,8.8486328125
0.0695,-1.681640625,-8.6484375,10.0498046875
0.07,-3.84375,-6.7666015625,10.330078125
0.0705,-5.6455078125,-4.6845703125,10.009765625
0.071,-8.328125,-2.322265625,10.2900390625
0.0715,-9.9697265625,0.2802734375,9.44921875
0.072,-10.5302734375,1.5615234375,8.6484375
0.0725,-11.53125,2.8828125,8.2880859375
0.073,-11.291015625,5.125,5.765625
0.0735,-11.05078125,6.88671875,3.6435546875
0.074,-11.291015625,9.44921875,1.4013671875
0.0745,-9.76953125,9.9697265625,-0.80078125
0.075,-9.3291015625,10.5302734375,-1.76171875
0.0755,-7.84765625,10.8505859375,-3.68359375
0.076,-5.1650390625,10.1298828125,-5.6455078125
0.0765,-3.1630859375,10.08984375,-7.5673828125
0.077,-0.5205078125,9.7294921875,-9.76953125
0.0775,1.3212890625,8.328125,-10.169921875
0.078,2.40234375,8.248046875,-11.05078125
0.0785,4.7646484375,6.0859375,-11.2509765625
0.079,6.6865234375,3.7236328125,-10.8505859375
0.0795,9.44921875,1.1611328125,-10.970703125
0.08,10.810546875,-1.2412109375,-10.009765625
0.0805,11.0908203125,-2.4423828125,-9.12890625
0.081,11.8916015625,-3.8837890625,-8.48828125
0.0815,11.5712890625,-6.2861328125,-5.765625
0.082,11.2109375,-7.8876953125,-3.603515625
0.0825,11.291015625,-10.330078125,-1.2412109375
0.083,9.609375,-10.5703125,0.8408203125
0.0835,9.0888671875,-10.890625,1.6416015625
0.084,7.3271484375,-11.0908203125,3.68359375
0.0845,4.5244140625,-10.330078125,5.7255859375
0.085,2.2822265625,-10.25,7.8076171875
0.0855,-0.3603515625,-9.689453125,9.849609375
0.086,-1.921875,-8.328125,9.9296875
0.0865,-2.9228515625,-7.9677734375,10.5703125
0.087,-5.5654296875,-5.5654296875,10.810546875
0.0875,-7.3671875,-3.2431640625,10.25
0.088,-10.009765625,-0.6806640625,10.3701171875
0.0885,-11.1708984375,1.6015625,9.208984375
0.089,-11.2509765625,2.6826171875,8.248046875
0.0895,-11.931640625,4.404296875,7.0869140625
0.09,-11.53125,6.806640625,4.3642578125
0.0905,-11.05078125,8.3681640625,2.2822265625
0.091,-11.05078125,10.650390625,-0.16015625
0.0915,-9.2890625,10.6103515625,-1.9619140625
0.092,-8.6884765625,10.810546875,-2.72265625
0.0925,-6.5263671875,10.890625,-5.0048828125
0.093,-3.8837890625,10.169921875,-6.88671875
0.0935,-1.521484375,9.9697265625,-9.048828125
0.094,0.9609375,9.2490234375,-10.7705078125
0.0945,2.2822265625,7.9677734375,-10.73046875
0.095,3.5234375,7.287109375,-11.2509765625
0.0955,6.3662109375,4.6044921875,-11.37109375
0.096,7.927734375,2.40234375,-10.73046875
0.0965,10.41015625,-0.16015625,-10.7705078125
0.097,11.37109375,-2.2421875,-9.609375
0.0975,11.37109375,-3.36328125,-8.48828125
0.098,11.8916015625,-5.28515625,-7.0869140625
0.0985,11.53125,-7.447265625,-4.404296875
0.099,11.0107421875,-8.8486328125,-2.4423828125
0.0995,10.8505859375,-10.890625,-0.2001953125
0.1,9.0087890625,-10.73046875,1.6015625
0.1005,8.1279296875,-10.7705078125,2.5224609375
0.101,5.7255859375,-10.890625,5.044921875
0.1015,3.3232421875,-10.1298828125,6.6865234375
0.102,1.0009765625,-9.8896484375,8.7685546875
0.1025,-1.3212890625,-9.1689453125,10.2099609375
0.103,-2.642578125,-7.767578125,10.08984375
0.1035,-4.1640625,-6.7265625,10.5302734375
0.104,-7.0068359375,-4.00390625,10.6904296875
0.1045,-8.3681640625,-1.8818359375,9.849609375
0.105,-10.5703125,0.3603515625,9.8896484375
0.1055,-11.37109375,2.40234375,8.5283203125
0.106,-11.291015625,3.68359375,7.287109375
0.1065,-11.69140625,5.765625,5.5654296875
0.107,-11.291015625,7.8076171875,3.04296875
0.1075,-10.5703125,8.96875,1.1611328125
0.108,-10.41015625,10.810546875,-1.0009765625
0.1085,-8.4482421875,10.5703125,-2.72265625
0.109,-7.3671875,10.5302734375,-3.8037109375
0.1095,-4.8447265625,10.5703125,-6.40625
0.11,-2.5224609375,9.8095703125,-7.8876953125
0.1105,-0.400390625,9.529296875,-9.689453125
0.111,1.841796875,8.6884765625,-10.970703125
0.1115,3.2431640625,7.126953125,-10.8505859375
0.112,5.044921875,5.7255859375,-11.1708984375
0.1125,7.8076171875,3.04296875,-11.2509765625
0.113,9.0888671875,0.6806640625,-10.2099609375
0.1135,10.9306640625,-1.1611328125,-10.330078125
0.114,11.611328125,-3.1630859375,-8.888671875
0.1145,11.451171875,-4.484375,-7.3671875
0.115,11.69140625,-6.6865234375,-5.4453125
0.1155,11.3310546875,-8.6484375,-3.04296875
0.116,10.41015625,-9.5693359375,-1.1611328125
0.1165,10.25,-11.1708984375,0.7607421875
0.117,8.0478515625,-10.8505859375,2.6826171875
0.1175,6.6865234375,-10.650390625,3.84375
0.118,4.1240234375,-10.7705078125,6.5263671875
0.1185,1.7216796875,-9.849609375,8.0078125
0.119,-0.2802734375,-9.4892578125,9.4892578125
0.1195,-2.3623046875,-8.6083984375,10.6904296875
0.12,-4.083984375,-6.7265625,10.5302734375
0.1205,-6.0458984375,-4.96484375,10.650390625
0.121,-8.7685546875,-2.4423828125,10.73046875
0.1215,-9.9697265625,0.080078125,9.4091796875
0.122,-11.4912109375,1.6015625,9.609375
0.1225,-11.931640625,3.7236328125,7.8876953125
0.123,-11.6513671875,5.365234375,5.92578125
0.1235,-11.8515625,7.607421875,3.84375
0.124,-11.37109375,9.5693359375,1.3212890625
0.1245,-10.1298828125,10.1298828125,-0.6005859375
0.125,-9.9697265625,11.53125,-2.1220703125
0.1255,-7.447265625,11.05078125,-4.2841796875
0.126,-5.6455078125,10.6904296875,-5.7255859375
0.1265,-3.203125,10.8505859375,-8.328125
0.127,-0.5205078125,9.609375,-9.7294921875
0.1275,1.2412109375,9.0888671875,-10.810546875
0.128,3.203125,8.16796875,-11.8515625
0.1285,5.2451171875,5.9658203125,-11.53125
0.129,7.3671875,3.68359375,-11.53125
0.1295,10.08984375,0.9609375,-11.6513671875
0.13,10.890625,-1.44140625,-9.9296875
0.1305,12.1318359375,-2.5224609375,-10.009765625
0.131,12.4921875,-4.7646484375,-8.16796875
0.1315,12.01171875,-6.56640625,-5.765625
0.132,12.1318359375,-8.888671875,-3.5634765625
0.1325,11.451171875,-10.7705078125,-0.9609375
0.133,9.9296875,-10.9306640625,0.880859375
0.1335,9.689453125,-11.9716796875,2.2021484375
0.134,6.9267578125,-11.4912109375,4.484375
0.1345,4.6044921875,-10.890625,6.2060546875
0.135,2.2421875,-11.0908203125,8.7685546875
0.1355,-0.640625,-9.6494140625,10.009765625
0.136,-1.9619140625,-8.96875,10.6904296875
0.1365,-3.84375,-8.0078125,11.37109375
0.137,-6.0859375,-5.4853515625,11.1708984375
0.1375,-8.328125,-2.962890625,10.890625
0.138,-10.9306640625,-0.240234375,10.8505859375
0.1385,-11.4111328125,2.0419921875,9.048828125
0.139,-12.251953125,2.9228515625,9.0087890625
0.1395,-12.5322265625,5.28515625,6.88671875
0.14,-11.8916015625,7.2470703125,4.2841796875
0.1405,-11.931640625,9.529296875,1.9619140625
0.141,-11.0908203125,11.1708984375,-0.640625
0.1415,-9.529296875,11.05078125,-2.1220703125
0.142,-9.12890625,11.8115234375,-3.3232421875
0.1425,-6.166015625,11.2509765625,-5.765625
0.143,-3.763671875,10.6103515625,-7.4873046875
0.1435,-1.361328125,10.73046875,-9.9697265625
0.144,1.361328125,9.0888671875,-10.890625
0.1445,2.40234375,8.48828125,-11.37109375
0.145,4.32421875,7.126953125,-11.9716796875
0.1455,6.56640625,4.5244140625,-11.5712890625
0.146,8.8486328125,1.9619140625,-11.2509765625
0.1465,11.291015625,-0.640625,-11.0908203125
0.147,11.451171875,-2.482421875,-9.369140625
0.1475,12.171875,-3.3232421875,-9.2490234375
0.148,12.2919921875,-5.845703125,-6.88671875
0.1485,11.6513671875,-7.5673828125,-4.484375
0.149,11.6513671875,-9.9296875,-2.1220703125
0.1495,10.6904296875,-11.2509765625,0.3603515625
0.15,9.2490234375,-10.9306640625,1.5615234375
0.1505,8.568359375,-11.4912109375,2.8427734375
0.151,5.60546875,-10.970703125,5.28515625
0.1515,3.2431640625,-10.41015625,7.046875
0.152,0.7607421875,-10.41015625,9.529296875
0.1525,-1.6015625,-8.8486328125,10.2099609375
0.153,-2.4423828125,-8.408203125,10.5302734375
0.1535,-4.564453125,-6.806640625,11.0107421875
0.154,-6.7666015625,-4.2041015625,10.6904296875
0.1545,-9.0087890625,-1.7216796875,10.3701171875
0.155,-11.2109375,0.80078125,10.08984375
0.1555,-11.2509765625,2.5224609375,8.4482421875
0.156,-11.8515625,3.4833984375,8.0478515625
0.1565,-11.9716796875,6.166015625,5.4453125
0.157,-11.37109375,7.6875,3.2431640625
0.1575,-11.291015625,9.9697265625,0.880859375
0.158,-10.25,11.0107421875,-1.361328125
0.1585,-8.8486328125,10.6904296875,-2.4423828125
0.159,-7.8076171875,11.0908203125,-3.923828125
0.1595,-4.8447265625,10.650390625,-6.40625
0.16,-2.5625,10.08984375,-8.16796875
0.1605,0.0,9.9697265625,-10.5302734375
0.161,2.0419921875,8.3681640625,-10.9306640625
0.1615,2.8828125,7.7275390625,-11.1708984375
0.162,5.4052734375,5.7255859375,-11.611328125
0.1625,7.52734375,3.283203125,-11.2109375
0.163,9.5693359375,0.8408203125,-10.7705078125
0.1635,11.53125,-1.44140625,-10.5302734375
0.164,11.53125,-3.1630859375,-8.728515625
0.1645,11.931640625,-4.3642578125,-8.0078125
0.165,12.0517578125,-7.0869140625,-5.3251953125
0.1655,11.3310546875,-8.408203125,-3.203125
0.166,11.1708984375,-10.4501953125,-1.0009765625
0.1665,9.9697265625,-11.291015625,1.2412109375
0.167,8.328125,-10.8505859375,2.40234375
0.1675,6.88671875,-11.1708984375,4.1240234375
0.168,4.00390625,-10.7705078125,6.646484375
0.1685,1.841796875,-10.009765625,8.087890625
0.169,-0.640625,-9.9296875,10.2099609375
0.1695,-2.5625,-8.2880859375,10.5302734375
0.17,-3.68359375,-7.2470703125,10.6103515625
0.1705,-6.40625,-4.884765625,11.0107421875
0.171,-8.328125,-2.5625,10.490234375
0.1715,-9.9697265625,-0.2802734375,9.8896484375
0.172,-11.69140625,1.841796875,9.609375
0.1725,-11.5712890625,3.763671875,7.52734375
0.173,-11.8115234375,5.044921875,6.40625
0.1735,-11.8916015625,7.7275390625,3.763671875
0.174,-10.970703125,8.888671875,1.6416015625
0.1745,-10.73046875,10.5302734375,-0.3203125
0.175,-9.4091796875,11.2109375,-2.40234375
0.1755,-7.5673828125,10.6103515625,-3.68359375
0.176,-5.8857421875,10.810546875,-5.60546875
0.1765,-3.203125,10.3701171875,-7.8076171875
0.177,-1.0810546875,9.529296875,-9.0888671875
0.1775,1.12109375,9.2890625,-10.9306640625
0.178,3.123046875,7.52734375,-11.1708984375
0.1785,4.32421875,6.3662109375,-11.0908203125
0.179,7.126953125,3.8837890625,-11.451171875
0.1795,8.888671875,1.4814453125,-10.73046875
0.18,10.2900390625,-0.640625,-10.1298828125
0.1805,11.69140625,-2.40234375,-9.76953125
0.181,11.4912109375,-4.2041015625,-7.6474609375
0.1815,11.53125,-5.6455078125,-6.326171875
0.182,11.69140625,-8.2080078125,-3.8837890625
0.1825,10.5703125,-9.12890625,-1.76171875
0.183,10.3701171875,-10.5703125,0.0
0.1835,8.9287109375,-11.0107421875,2.001953125
0.184,7.046875,-10.4501953125,3.3232421875
0.1845,5.1650390625,-10.6103515625,5.365234375
0.185,2.642578125,-10.25,7.447265625
0.1855,0.6005859375,-9.369140625,8.568359375
0.186,-1.3212890625,-9.208984375,10.169921875
0.1865,-3.3232421875,-7.287109375,10.2900390625
0.187,-4.7646484375,-5.845703125,10.25
0.1875,-7.52734375,-3.4033203125,10.6103515625
0.188,-9.12890625,-1.0009765625,9.7294921875
0.1885,-10.330078125,0.880859375,9.208984375
0.189,-11.4912109375,2.5224609375,8.6484375
0.1895,-11.2509765625,4.4443359375,6.4462890625
0.19,-11.2509765625,6.0859375,4.8046875
0.1905,-11.4111328125,8.48828125,2.5224609375
0.191,-10.08984375,9.208984375,0.4404296875
0.1915,-10.009765625,10.4501953125,-1.041015625
0.192,-8.328125,10.73046875,-3.0830078125
0.1925,-6.2861328125,10.1298828125,-4.484375
0.193,-4.32421875,10.25,-6.646484375
0.1935,-1.8017578125,9.76953125,-8.6484375
0.194,0.2001953125,8.7685546875,-9.529296875
0.1945,1.8017578125,8.6083984375,-10.890625
0.195,3.84375,6.6064453125,-10.890625
0.1955,5.60546875,4.8046875,-10.7705078125
0.196,8.328125,2.3623046875,-11.0908203125
0.1965,9.7294921875,-0.2001953125,-10.009765625
0.197,10.73046875,-1.5615234375,-9.6494140625
0.1975,11.611328125,-3.203125,-8.888671875
0.198,11.291015625,-5.125,-6.56640625
0.1985,11.2509765625,-6.966796875,-4.6845703125
0.199,11.37109375,-9.3291015625,-2.322265625
0.1995,9.8095703125,-9.76953125,-0.3203125
0.2,9.7294921875,-10.7705078125,0.9208984375
0.2005,7.7275390625,-10.810546875,3.0029296875
0.201,5.4853515625,-10.25,4.6044921875
0.2015,3.4833984375,-10.41015625,6.7666015625
0.202,0.880859375,-9.76953125,8.6484375
0.2025,-0.9208984375,-8.6884765625,9.3291015625
0.203,-2.2822265625,-8.408203125,10.41015625
0.2035,-4.484375,-6.24609375,10.3701171875
0.204,-6.40625,-4.083984375,10.169921875
0.2045,-9.12890625,-1.6416015625,10.41015625
0.205,-10.25,0.8408203125,9.0888671875
0.2055,-10.9306640625,1.921875,8.7685546875
0.206,-11.5712890625,3.603515625,7.6474609375
0.2065,-11.2509765625,5.7255859375,5.125
0.207,-11.05078125,7.6474609375,3.123046875
0.2075,-11.05078125,9.8095703125,0.7607421875
0.208,-9.4091796875,9.9697265625,-1.1611328125
0.2085,-9.2490234375,10.73046875,-2.08203125
0.209,-7.046875,10.5302734375,-4.2041015625
0.2095,-4.64453125,9.9296875,-5.92578125
0.21,-2.5625,10.0498046875,-8.2080078125
0.2105,0.0400390625,9.208984375,-9.76953125
0.211,1.4814453125,8.2080078125,-10.1298828125
0.2115,2.802734375,7.767578125,-10.970703125
0.212,5.0849609375,5.4052734375,-10.890625
0.2125,7.046875,3.1630859375,-10.5703125
0.213,9.7294921875,0.640625,-10.7705078125
0.2135,10.4501953125,-1.4814453125,-9.4091796875
0.214,11.0107421875,-2.322265625,-9.12890625
0.2145,11.4912109375,-4.2041015625,-7.6875
0.215,11.0908203125,-6.2060546875,-5.28515625
0.2155,11.0107421875,-8.2080078125,-3.1630859375
0.216,10.73046875,-10.1298828125,-0.9208984375
0.2165,9.12890625,-10.009765625,0.7607421875
0.217,8.8486328125,-10.650390625,1.6015625
0.2175,6.40625,-10.4501953125,3.84375
0.218,4.1240234375,-9.9296875,5.5654296875
0.2185,1.921875,-10.009765625,7.927734375
0.219,-0.5205078125,-8.96875,9.2490234375
0.2195,-1.6015625,-8.2080078125,9.529296875
0.22,-3.0830078125,-7.3671875,10.169921875
0.2205,-5.4453125,-4.96484375,10.08984375
0.221,-7.3671875,-2.802734375,9.849609375
0.2215,-9.8896484375,-0.3603515625,9.8896484375
0.222,-10.3701171875,1.6015625,8.48828125
0.2225,-10.890625,2.482421875,8.1279296875
0.223,-11.2509765625,4.6044921875,6.24609375
0.2235,-10.8505859375,6.4462890625,4.00390625
0.224,-10.7705078125,8.4482421875,1.921875
0.2245,-10.2900390625,10.08984375,-0.3603515625
0.225,-8.80859375,9.849609375,-1.681640625
0.2255,-8.2880859375,10.25,-2.642578125
0.226,-5.6455078125,10.08984375,-5.125
