wavelength,x,y,z
0.0,5.0048828125,-4.96484375,-1.8818359375
0.0005,4.484375,-5.7255859375,-0.720703125
0.001,3.9638671875,-6.24609375,0.080078125
0.0015,2.9228515625,-6.40625,1.201171875
0.002,1.5615234375,-6.486328125,2.6826171875
0.0025,0.2802734375,-6.646484375,4.1240234375
0.003,-0.720703125,-6.646484375,5.0849609375
0.0035,-1.3212890625,-6.646484375,5.8056640625
0.004,-2.2822265625,-6.1259765625,6.326171875
0.0045,-3.68359375,-4.8447265625,6.646484375
0.005,-4.8046875,-3.603515625,6.88671875
0.0055,-5.6455078125,-2.40234375,6.806640625
0.006,-6.1259765625,-1.361328125,6.6064453125
0.0065,-6.166015625,-0.6005859375,6.166015625
0.007,-5.9658203125,0.48046875,5.3251953125
0.0075,-5.7255859375,1.7216796875,4.1240234375
0.008,-5.525390625,3.04296875,2.8828125
0.0085,-5.205078125,3.923828125,1.76171875
0.009,-4.884765625,4.7646484375,0.8408203125
0.0095,-4.244140625,5.1650390625,0.0
0.01,-3.203125,5.4052734375,-1.28125
0.0105,-2.001953125,5.685546875,-2.72265625
0.011,-0.8408203125,5.845703125,-4.0439453125
0.0115,0.1201171875,5.92578125,-5.0048828125
0.012,0.7607421875,5.92578125,-5.7255859375
0.0125,1.8017578125,5.28515625,-6.24609375
0.013,3.123046875,4.083984375,-6.6064453125
0.0135,4.2841796875,2.8828125,-6.8466796875
0.014,5.0849609375,1.76171875,-6.806640625
0.0145,5.4853515625,0.80078125,-6.6064453125
0.015,5.5654296875,0.0,-6.166015625
0.0155,5.365234375,-1.1611328125,-5.205078125
0.016,5.205078125,-2.322265625,-4.1640625
0.0165,5.0849609375,-3.68359375,-3.04296875
0.017,4.8046875,-4.6845703125,-1.921875
0.0175,4.484375,-5.4052734375,-1.041015625
0.018,3.763671875,-5.7255859375,0.0400390625
0.0185,2.6826171875,-5.92578125,1.28125
0.019,1.521484375,-6.326171875,2.7626953125
0.0195,0.4404296875,-6.4462890625,3.923828125
0.02,-0.400390625,-6.6064453125,4.8447265625
0.0205,-1.1611328125,-6.4462890625,5.525390625
0.021,-2.40234375,-5.5654296875,6.0458984375
0.0215,-3.68359375,-4.4443359375,6.40625
0.022,-4.7646484375,-3.2431640625,6.6064453125
0.0225,-5.4453125,-2.162109375,6.4462890625
0.023,-5.765625,-1.361328125,6.2861328125
0.0235,-5.765625,-0.5205078125,5.7255859375
0.024,-5.525390625,0.720703125,4.64453125
0.0245,-5.4453125,1.9619140625,3.6435546875
0.025,-5.28515625,3.123046875,2.5224609375
0.0255,-5.0048828125,3.9638671875,1.521484375
0.026,-4.64453125,4.6044921875,0.6806640625
0.0265,-3.8037109375,4.9248046875,-0.400390625
0.027,-2.6826171875,5.2451171875,-1.76171875
0.0275,-1.5615234375,5.5654296875,-3.123046875
0.028,-0.640625,5.685546875,-4.1640625
0.0285,0.1201171875,5.8056640625,-5.0048828125
0.029,0.9609375,5.4453125,-5.60546875
0.0295,2.2421875,4.484375,-6.0458984375
0.03,3.36328125,3.443359375,-6.40625
0.0305,4.32421875,2.322265625,-6.486328125
0.031,4.96484375,1.3212890625,-6.40625
0.0315,5.1650390625,0.6005859375,-6.166015625
0.032,5.0849609375,-0.400390625,-5.525390625
0.0325,4.96484375,-1.4814453125,-4.5244140625
0.033,4.9248046875,-2.72265625,-3.5634765625
0.0335,4.7646484375,-3.84375,-2.5625
0.034,4.5244140625,-4.6044921875,-1.681640625
0.0345,4.083984375,-5.125,-0.8408203125
0.035,3.1630859375,-5.4453125,0.3603515625
0.0355,2.2421875,-5.845703125,1.6015625
0.036,1.1611328125,-6.1259765625,2.9228515625
0.0365,0.3603515625,-6.326171875,3.923828125
0.037,-0.400390625,-6.4462890625,4.7646484375
0.0375,-1.4013671875,-5.9658203125,5.365234375
0.038,-2.642578125,-5.0048828125,5.8056640625
0.0385,-3.8037109375,-4.00390625,6.2060546875
0.039,-4.6845703125,-2.9228515625,6.24609375
0.0395,-5.205078125,-2.08203125,6.24609375
0.04,-5.4052734375,-1.28125,5.8857421875
0.0405,-5.3251953125,-0.3203125,5.1650390625
0.041,-5.28515625,0.80078125,4.32421875
0.0415,-5.28515625,2.0419921875,3.3232421875
0.042,-5.125,3.0830078125,2.3623046875
0.0425,-4.884765625,3.8837890625,1.5615234375
0.043,-4.32421875,4.3642578125,0.6005859375
0.0435,-3.36328125,4.6845703125,-0.640625
0.044,-2.4423828125,5.1650390625,-1.9619140625
0.0445,-1.4814453125,5.4052734375,-3.1630859375
0.045,-0.7607421875,5.685546875,-4.1240234375
0.0455,0.1201171875,5.60546875,-4.884765625
0.046,1.201171875,5.0048828125,-5.4453125
0.0465,2.40234375,4.083984375,-5.8857421875
0.047,3.5234375,3.04296875,-6.2060546875
0.0475,4.2841796875,2.0419921875,-6.24609375
0.048,4.724609375,1.28125,-6.2060546875
0.0485,4.8447265625,0.5205078125,-5.8056640625
0.049,4.7646484375,-0.640625,-5.0048828125
0.0495,4.8046875,-1.76171875,-4.2041015625
0.05,4.8046875,-2.8828125,-3.2431640625
0.0505,4.6044921875,-3.84375,-2.322265625
0.051,4.404296875,-4.5244140625,-1.5615234375
0.0515,3.68359375,-5.0048828125,-0.6005859375
0.052,2.8427734375,-5.4052734375,0.6806640625
0.0525,1.921875,-5.8056640625,2.001953125
0.053,1.041015625,-6.1259765625,3.123046875
0.0535,0.3603515625,-6.3662109375,4.0439453125
0.054,-0.640625,-6.166015625,4.8046875
0.0545,-1.841796875,-5.4052734375,5.28515625
0.055,-3.0029296875,-4.5244140625,5.8056640625
0.0555,-4.0439453125,-3.5234375,6.0859375
0.056,-4.7646484375,-2.6025390625,6.1259765625
0.0565,-5.125,-1.8818359375,6.005859375
0.057,-5.205078125,-1.0009765625,5.4853515625
0.0575,-5.1650390625,0.1201171875,4.6845703125
0.058,-5.2451171875,1.361328125,3.84375
0.0585,-5.1650390625,2.482421875,2.8427734375
0.059,-4.96484375,3.36328125,2.0419921875
0.0595,-4.6044921875,3.9638671875,1.1611328125
0.06,-3.8037109375,4.404296875,0.0400390625
0.0605,-2.962890625,4.9248046875,-1.28125
0.061,-1.9619140625,5.2451171875,-2.5625
0.0615,-1.1611328125,5.5654296875,-3.603515625
0.062,-0.48046875,5.685546875,-4.484375
0.0625,0.640625,5.28515625,-5.1650390625
0.063,1.921875,4.404296875,-5.6455078125
0.0635,3.04296875,3.443359375,-6.0859375
0.064,3.9638671875,2.40234375,-6.2060546875
0.0645,4.5244140625,1.5615234375,-6.2060546875
0.065,4.8046875,0.720703125,-5.9658203125
0.0655,4.7646484375,-0.2802734375,-5.28515625
0.066,4.7646484375,-1.3212890625,-4.4443359375
0.0665,4.8046875,-2.5625,-3.5234375
0.067,4.64453125,-3.5634765625,-2.6025390625
0.0675,4.484375,-4.3642578125,-1.76171875
0.068,3.9638671875,-4.884765625,-0.8408203125
0.0685,3.04296875,-5.28515625,0.400390625
0.069,2.162109375,-5.765625,1.7216796875
0.0695,1.2412109375,-6.0859375,2.9228515625
0.07,0.48046875,-6.3662109375,3.8837890625
0.0705,-0.400390625,-6.2861328125,4.6845703125
0.071,-1.5615234375,-5.6455078125,5.28515625
0.0715,-2.8427734375,-4.6845703125,5.765625
0.072,-3.923828125,-3.6435546875,6.0859375
0.0725,-4.7646484375,-2.6025390625,6.1259765625
0.073,-5.1650390625,-1.921875,6.0859375
0.0735,-5.28515625,-1.0810546875,5.60546875
0.074,-5.1650390625,0.1201171875,4.7646484375
0.0745,-5.205078125,1.28125,3.8837890625
0.075,-5.1650390625,2.4423828125,2.9228515625
0.0755,-5.0048828125,3.36328125,2.001953125
0.076,-4.6845703125,4.0439453125,1.201171875
0.0765,-3.9638671875,4.484375,0.2001953125
0.077,-2.962890625,4.8447265625,-1.201171875
0.0775,-2.001953125,5.28515625,-2.5224609375
0.078,-1.1611328125,5.4853515625,-3.6435546875
0.0785,-0.48046875,5.7255859375,-4.5244140625
0.079,0.560546875,5.4052734375,-5.1650390625
0.0795,1.8017578125,4.5244140625,-5.7255859375
0.08,3.0029296875,3.5634765625,-6.1259765625
0.0805,4.0439453125,2.482421875,-6.326171875
0.081,4.6845703125,1.521484375,-6.326171875
0.0815,4.96484375,0.720703125,-6.1259765625
0.082,4.96484375,-0.2001953125,-5.4853515625
0.0825,4.8046875,-1.3212890625,-4.5244140625
0.083,4.9248046875,-2.5625,-3.5634765625
0.0835,4.7646484375,-3.68359375,-2.6025390625
0.084,4.5244140625,-4.5244140625,-1.76171875
0.0845,4.083984375,-5.044921875,-0.880859375
0.085,3.1630859375,-5.365234375,0.3603515625
0.0855,2.2021484375,-5.8056640625,1.681640625
0.086,1.12109375,-6.1259765625,3.04296875
0.0865,0.3603515625,-6.3662109375,4.00390625
0.087,-0.48046875,-6.40625,4.8447265625
0.0875,-1.5615234375,-5.8857421875,5.4453125
0.088,-2.8828125,-4.8046875,5.92578125
0.0885,-4.0439453125,-3.7236328125,6.2861328125
0.089,-4.9248046875,-2.6826171875,6.326171875
0.0895,-5.4052734375,-1.8818359375,6.24609375
0.09,-5.525390625,-1.0009765625,5.8056640625
0.0905,-5.4052734375,0.16015625,4.96484375
0.091,-5.365234375,1.3212890625,3.9638671875
0.0915,-5.3251953125,2.642578125,2.8828125
0.092,-5.125,3.6435546875,1.921875
0.0925,-4.8046875,4.32421875,1.0810546875
0.093,-4.1240234375,4.724609375,0.1201171875
0.0935,-2.962890625,5.0048828125,-1.28125
0.094,-1.9619140625,5.4453125,-2.72265625
0.0945,-0.9609375,5.6455078125,-3.8837890625
0.095,-0.240234375,5.8056640625,-4.8447265625
0.0955,0.720703125,5.6455078125,-5.525390625
0.096,1.921875,4.7646484375,-6.0458984375
0.0965,3.2431640625,3.603515625,-6.4462890625
0.097,4.404296875,2.40234375,-6.646484375
0.0975,5.044921875,1.3212890625,-6.56640625
0.098,5.3251953125,0.560546875,-6.3662109375
0.0985,5.3251953125,-0.4404296875,-5.765625
0.099,5.0849609375,-1.6416015625,-4.6044921875
0.0995,5.0849609375,-2.9228515625,-3.5234375
0.1,4.9248046875,-4.1640625,-2.40234375
0.1005,4.64453125,-5.0048828125,-1.44140625
0.101,4.2041015625,-5.60546875,-0.6005859375
0.1015,3.2431640625,-5.845703125,0.6005859375
0.102,2.001953125,-6.1259765625,2.08203125
0.1025,0.80078125,-6.4462890625,3.5634765625
0.103,0.0,-6.56640625,4.6044921875
0.1035,-0.8408203125,-6.6064453125,5.4052734375
0.104,-1.9619140625,-6.1259765625,6.005859375
0.1045,-3.36328125,-4.8447265625,6.40625
0.105,-4.6044921875,-3.68359375,6.7666015625
0.1055,-5.525390625,-2.4423828125,6.7666015625
0.106,-6.005859375,-1.4013671875,6.56640625
0.1065,-6.0859375,-0.6005859375,6.1259765625
0.107,-5.92578125,0.6005859375,5.205078125
0.1075,-5.7255859375,1.921875,3.8837890625
0.108,-5.525390625,3.283203125,2.6826171875
0.1085,-5.28515625,4.32421875,1.5615234375
0.109,-4.8447265625,4.96484375,0.640625
0.1095,-4.1240234375,5.3251953125,-0.3603515625
0.11,-2.8828125,5.4853515625,-1.76171875
0.1105,-1.6015625,5.8056640625,-3.283203125
0.111,-0.4404296875,5.92578125,-4.6044921875
0.1115,0.4404296875,6.005859375,-5.4453125
0.112,1.201171875,5.8056640625,-6.1259765625
0.1125,2.3623046875,4.96484375,-6.6064453125
0.113,3.8037109375,3.4833984375,-6.9267578125
0.1135,4.9248046875,2.2421875,-7.0869140625
0.114,5.60546875,1.12109375,-6.9267578125
0.1145,5.8857421875,0.2001953125,-6.6064453125
0.115,5.765625,-0.7607421875,-6.005859375
0.1155,5.4853515625,-1.9619140625,-4.8447265625
0.116,5.28515625,-3.283203125,-3.5234375
0.1165,5.0849609375,-4.564453125,-2.2822265625
0.117,4.7646484375,-5.4453125,-1.1611328125
0.1175,4.2841796875,-6.005859375,-0.3603515625
0.118,3.36328125,-6.24609375,0.7607421875
0.1185,1.9619140625,-6.40625,2.2421875
0.119,0.6806640625,-6.6865234375,3.8037109375
0.1195,-0.4404296875,-6.7265625,4.9248046875
0.12,-1.1611328125,-6.7265625,5.7255859375
0.1205,-2.001953125,-6.3662109375,6.2861328125
0.121,-3.36328125,-5.205078125,6.6865234375
0.1215,-4.64453125,-3.8837890625,6.966796875
0.122,-5.7255859375,-2.5625,7.046875
0.1225,-6.2861328125,-1.44140625,6.7666015625
0.123,-6.3662109375,-0.640625,6.40625
0.1235,-6.2060546875,0.48046875,5.60546875
0.124,-5.92578125,1.76171875,4.2841796875
0.1245,-5.7255859375,3.123046875,3.0029296875
0.125,-5.4453125,4.2841796875,1.76171875
0.1255,-5.0048828125,5.044921875,0.7607421875
0.126,-4.404296875,5.4453125,-0.2001953125
0.1265,-3.3232421875,5.6455078125,-1.361328125
0.127,-1.921875,5.845703125,-2.9228515625
0.1275,-0.6806640625,6.0458984375,-4.404296875
0.128,0.3603515625,6.0458984375,-5.365234375
0.1285,1.0009765625,6.005859375,-6.0859375
0.129,2.001953125,5.365234375,-6.56640625
0.1295,3.443359375,4.00390625,-6.88671875
0.13,4.6044921875,2.802734375,-7.0869140625
0.1305,5.4453125,1.5615234375,-7.0869140625
0.131,5.8857421875,0.48046875,-6.7666015625
0.1315,5.8857421875,-0.400390625,-6.326171875
0.132,5.685546875,-1.44140625,-5.4052734375
0.1325,5.4052734375,-2.7626953125,-4.00390625
0.133,5.205078125,-4.1240234375,-2.7626953125
0.1335,4.9248046875,-5.125,-1.6015625
0.134,4.484375,-5.8056640625,-0.6806640625
0.1345,3.8037109375,-6.166015625,0.3203125
0.135,2.5625,-6.326171875,1.5615234375
0.1355,1.28125,-6.6064453125,3.1630859375
0.136,0.080078125,-6.7265625,4.484375
0.1365,-0.8408203125,-6.7666015625,5.4052734375
0.137,-1.5615234375,-6.646484375,6.0458984375
0.1375,-2.6826171875,-5.845703125,6.5263671875
0.138,-4.1640625,-4.4443359375,6.88671875
0.1385,-5.28515625,-3.203125,7.046875
0.139,-6.005859375,-1.9619140625,6.88671875
0.1395,-6.326171875,-1.041015625,6.646484375
0.14,-6.24609375,0.0,5.9658203125
0.1405,-5.9658203125,1.12109375,4.8447265625
0.141,-5.765625,2.482421875,3.5634765625
0.1415,-5.60546875,3.8037109375,2.2822265625
0.142,-5.2451171875,4.724609375,1.201171875
0.1425,-4.7646484375,5.3251953125,0.3203125
0.143,-3.8837890625,5.5654296875,-0.80078125
0.1435,-2.482421875,5.7255859375,-2.2822265625
0.144,-1.2412109375,6.0458984375,-3.84375
0.1445,0.0,6.0859375,-5.044921875
0.145,0.720703125,6.0859375,-5.845703125
0.1455,1.5615234375,5.7255859375,-6.4462890625
0.146,2.8828125,4.6044921875,-6.8466796875
0.1465,4.2041015625,3.283203125,-7.126953125
0.147,5.2451171875,1.9619140625,-7.20703125
0.1475,5.8056640625,0.80078125,-6.9267578125
0.148,5.9658203125,0.0,-6.56640625
0.1485,5.845703125,-1.12109375,-5.765625
0.149,5.4853515625,-2.40234375,-4.4443359375
0.1495,5.3251953125,-3.7236328125,-3.203125
0.15,5.0849609375,-4.9248046875,-1.9619140625
0.1505,4.64453125,-5.685546875,-0.9609375
0.151,4.083984375,-6.166015625,0.0400390625
0.1515,3.0029296875,-6.326171875,1.1611328125
0.152,1.6015625,-6.486328125,2.6826171875
0.1525,0.3203125,-6.7265625,4.1640625
0.153,-0.720703125,-6.7265625,5.125
0.1535,-1.3212890625,-6.7265625,5.8857421875
0.154,-2.3623046875,-6.0859375,6.40625
0.1545,-3.763671875,-4.7646484375,6.6865234375
0.155,-4.884765625,-3.5634765625,6.966796875
0.1555,-5.765625,-2.2822265625,6.88671875
0.156,-6.2060546875,-1.28125,6.646484375
0.1565,-6.24609375,-0.4404296875,6.1259765625
0.157,-6.005859375,0.640625,5.2451171875
0.1575,-5.7255859375,1.921875,3.9638671875
0.158,-5.525390625,3.2431640625,2.72265625
0.1585,-5.2451171875,4.2841796875,1.6015625
0.159,-4.8447265625,4.96484375,0.6806640625
0.1595,-4.1640625,5.28515625,-0.3203125
0.16,-3.0029296875,5.4453125,-1.5615234375
0.1605,-1.8017578125,5.765625,-3.0029296875
0.161,-0.6005859375,5.845703125,-4.3642578125
0.1615,0.3203125,5.92578125,-5.2451171875
0.162,0.9609375,5.8857421875,-5.92578125
0.1625,2.0419921875,5.125,-6.40625
0.163,3.36328125,3.8837890625,-6.7265625
0.1635,4.5244140625,2.6826171875,-6.9267578125
0.164,5.2451171875,1.521484375,-6.88671875
0.1645,5.6455078125,0.6005859375,-6.6064453125
0.165,5.6455078125,-0.3203125,-6.1259765625
0.1655,5.4052734375,-1.361328125,-5.125
0.166,5.2451171875,-2.6025390625,-3.9638671875
0.1665,5.0849609375,-3.9638671875,-2.7626953125
0.167,4.8046875,-4.9248046875,-1.681640625
0.1675,4.484375,-5.5654296875,-0.8408203125
0.168,3.6435546875,-5.8857421875,0.240234375
0.1685,2.482421875,-6.1259765625,1.521484375
0.169,1.28125,-6.4462890625,3.04296875
0.1695,0.2001953125,-6.56640625,4.2041015625
0.17,-0.640625,-6.6865234375,5.0849609375
0.1705,-1.44140625,-6.4462890625,5.765625
0.171,-2.642578125,-5.4853515625,6.2060546875
0.1715,-3.9638671875,-4.2841796875,6.56640625
0.172,-5.0849609375,-3.0830078125,6.7265625
0.1725,-5.685546875,-1.9619140625,6.56640625
0.173,-5.92578125,-1.1611328125,6.3662109375
0.1735,-5.845703125,-0.2802734375,5.685546875
0.174,-5.6455078125,0.9609375,4.6044921875
0.1745,-5.525390625,2.2421875,3.4833984375
0.175,-5.3251953125,3.443359375,2.2822265625
0.1755,-5.0048828125,4.2841796875,1.3212890625
0.176,-4.564453125,4.8046875,0.5205078125
0.1765,-3.68359375,5.0849609375,-0.640625
0.177,-2.5224609375,5.28515625,-1.9619140625
0.1775,-1.361328125,5.60546875,-3.4033203125
0.178,-0.4404296875,5.7255859375,-4.4443359375
0.1785,0.3203125,5.8056640625,-5.205078125
0.179,1.201171875,5.4052734375,-5.8056640625
0.1795,2.482421875,4.404296875,-6.2060546875
0.18,3.6435546875,3.3232421875,-6.5263671875
0.1805,4.564453125,2.162109375,-6.6064453125
0.181,5.125,1.201171875,-6.486328125
0.1815,5.28515625,0.4404296875,-6.2060546875
0.182,5.1650390625,-0.560546875,-5.4853515625
0.1825,5.0048828125,-1.6416015625,-4.484375
0.183,4.96484375,-2.8828125,-3.4033203125
0.1835,4.7646484375,-3.9638671875,-2.40234375
0.184,4.484375,-4.7646484375,-1.5615234375
0.1845,4.00390625,-5.2451171875,-0.6806640625
0.185,3.123046875,-5.60546875,0.5205078125
0.1855,2.08203125,-5.9658203125,1.76171875
0.186,0.9609375,-6.166015625,3.123046875
0.1865,0.240234375,-6.3662109375,4.1240234375
0.187,-0.6005859375,-6.4462890625,4.8447265625
0.1875,-1.521484375,-5.9658203125,5.4453125
0.188,-2.802734375,-4.96484375,5.92578125
0.1885,-3.9638671875,-3.8837890625,6.24609375
0.189,-4.8447265625,-2.8427734375,6.326171875
0.1895,-5.3251953125,-1.9619140625,6.2861328125
0.19,-5.4453125,-1.201171875,5.8857421875
0.1905,-5.4052734375,-0.240234375,5.125
0.191,-5.3251953125,0.9609375,4.2841796875
0.1915,-5.28515625,2.2021484375,3.2431640625
0.192,-5.125,3.1630859375,2.2822265625
0.1925,-4.8447265625,3.9638671875,1.4013671875
0.193,-4.2841796875,4.404296875,0.5205078125
0.1935,-3.283203125,4.724609375,-0.80078125
0.194,-2.40234375,5.2451171875,-2.08203125
0.1945,-1.361328125,5.4453125,-3.283203125
0.195,-0.640625,5.685546875,-4.244140625
0.1955,0.240234375,5.60546875,-5.0048828125
0.196,1.28125,4.96484375,-5.525390625
0.1965,2.482421875,4.0439453125,-5.9658203125
0.197,3.6435546875,2.962890625,-6.2861328125
0.1975,4.404296875,1.9619140625,-6.2861328125
0.198,4.8046875,1.201171875,-6.2060546875
0.1985,4.9248046875,0.400390625,-5.765625
0.199,4.8046875,-0.6806640625,-4.96484375
0.1995,4.8046875,-1.8017578125,-4.1240234375
0.2,4.8046875,-2.962890625,-3.1630859375
0.2005,4.6044921875,-3.923828125,-2.2421875
0.201,4.32421875,-4.6845703125,-1.44140625
0.2015,3.6435546875,-5.0849609375,-0.5205078125
0.202,2.7626953125,-5.4453125,0.80078125
0.2025,1.76171875,-5.845703125,2.162109375
0.203,0.9208984375,-6.1259765625,3.203125
0.2035,0.240234375,-6.3662109375,4.1240234375
0.204,-0.6806640625,-6.166015625,4.8447265625
0.2045,-1.921875,-5.3251953125,5.365234375
0.205,-3.0830078125,-4.484375,5.845703125
0.2055,-4.1240234375,-3.4033203125,6.0859375
0.206,-4.8447265625,-2.5224609375,6.1259765625
0.2065,-5.125,-1.8017578125,5.9658203125
0.207,-5.1650390625,-0.9208984375,5.4453125
0.2075,-5.1650390625,0.240234375,4.64453125
0.208,-5.205078125,1.4013671875,3.763671875
0.2085,-5.125,2.482421875,2.8427734375
0.209,-4.9248046875,3.3232421875,1.9619140625
0.2095,-4.5244140625,3.9638671875,1.12109375
0.21,-3.763671875,4.32421875,0.0
0.2105,-2.9228515625,4.8447265625,-1.28125
0.211,-1.9619140625,5.2451171875,-2.5625
0.2115,-1.1611328125,5.525390625,-3.603515625
0.212,-0.48046875,5.685546875,-4.4443359375
0.2125,0.6005859375,5.28515625,-5.0849609375
0.213,1.841796875,4.4443359375,-5.6455078125
0.2135,3.04296875,3.4833984375,-6.0458984375
0.214,3.923828125,2.4423828125,-6.2060546875
0.2145,4.484375,1.6015625,-6.24609375
0.215,4.7646484375,0.8408203125,-5.9658203125
0.2155,4.724609375,-0.2001953125,-5.28515625
0.216,4.7646484375,-1.2412109375,-4.484375
0.2165,4.8046875,-2.482421875,-3.5634765625
0.217,4.64453125,-3.5634765625,-2.642578125
0.2175,4.484375,-4.3642578125,-1.8818359375
0.218,3.9638671875,-4.8447265625,-1.0009765625
0.2185,3.123046875,-5.205078125,0.3203125
0.219,2.2421875,-5.7255859375,1.6015625
0.2195,1.28125,-6.0458984375,2.8427734375
0.22,0.560546875,-6.2861328125,3.84375
0.2205,-0.3603515625,-6.326171875,4.6044921875
0.221,-1.4814453125,-5.6455078125,5.2451171875
0.2215,-2.72265625,-4.7646484375,5.7255859375
0.222,-3.8837890625,-3.68359375,6.0859375
0.2225,-4.6845703125,-2.6826171875,6.1259765625
0.223,-5.125,-1.9619140625,6.0859375
0.2235,-5.2451171875,-1.12109375,5.6455078125
0.224,-5.1650390625,0.0400390625,4.8046875
0.2245,-5.205078125,1.201171875,3.9638671875
0.225,-5.1650390625,2.3623046875,2.9228515625
0.2255,-5.0048828125,3.283203125,2.0419921875
0.226,-4.6845703125,3.9638671875,1.201171875
0.2265,-3.9638671875,4.4443359375,0.240234375
0.227,-3.04296875,4.8046875,-1.12109375
0.2275,-2.0419921875,5.2451171875,-2.482421875
0.228,-1.1611328125,5.4853515625,-3.5634765625
