wavelength,x,y,z
0.0,5.695556640625,-0.190185546875,-6.276123046875
0.0005,5.375244140625,-1.191162109375,-5.275146484375
0.001,5.175048828125,-2.352294921875,-4.154052734375
0.0015,4.974853515625,-3.713623046875,-2.952880859375
0.002,4.734619140625,-4.714599609375,-1.791748046875
0.0025,4.494384765625,-5.515380859375,-0.990966796875
0.003,3.773681640625,-5.835693359375,0.050048828125
0.0035,2.612548828125,-5.955810546875,1.251220703125
0.004,1.451416015625,-6.276123046875,2.692626953125
0.0045,0.290283203125,-6.396240234375,3.973876953125
0.005,-0.630615234375,-6.516357421875,4.974853515625
0.0055,-1.311279296875,-6.516357421875,5.735595703125
0.006,-2.432373046875,-5.675537109375,6.135986328125
0.0065,-3.713623046875,-4.514404296875,6.456298828125
0.007,-4.834716796875,-3.313232421875,6.696533203125
0.0075,-5.515380859375,-2.152099609375,6.536376953125
0.008,-5.915771484375,-1.311279296875,6.456298828125
0.0085,-5.835693359375,-0.510498046875,5.855712890625
0.009,-5.595458984375,0.610595703125,4.814697265625
0.0095,-5.475341796875,1.851806640625,3.733642578125
0.01,-5.275146484375,3.173095703125,2.532470703125
0.0105,-4.994873046875,4.134033203125,1.531494140625
0.011,-4.634521484375,4.814697265625,0.650634765625
0.0115,-3.793701171875,5.014892578125,-0.390380859375
0.012,-2.672607421875,5.255126953125,-1.631591796875
0.0125,-1.551513671875,5.535400390625,-3.072998046875
0.013,-0.510498046875,5.615478515625,-4.194091796875
0.0135,0.290283203125,5.815673828125,-5.114990234375
0.014,1.131103515625,5.575439453125,-5.755615234375
0.0145,2.252197265625,4.574462890625,-6.115966796875
0.015,3.453369140625,3.533447265625,-6.436279296875
0.0155,4.414306640625,2.332275390625,-6.556396484375
0.016,5.054931640625,1.331298828125,-6.436279296875
0.0165,5.335205078125,0.570556640625,-6.316162109375
0.017,5.175048828125,-0.390380859375,-5.635498046875
0.0175,4.934814453125,-1.431396484375,-4.674560546875
0.018,4.894775390625,-2.592529296875,-3.593505859375
0.0185,4.654541015625,-3.713623046875,-2.512451171875
0.019,4.494384765625,-4.634521484375,-1.591552734375
0.0195,4.093994140625,-5.275146484375,-0.790771484375
0.02,3.213134765625,-5.475341796875,0.290283203125
0.0205,2.252197265625,-5.755615234375,1.531494140625
0.021,1.091064453125,-5.995849609375,2.852783203125
0.0215,0.210205078125,-6.156005859375,3.893798828125
0.022,-0.590576171875,-6.436279296875,4.854736328125
0.0225,-1.471435546875,-6.035888671875,5.415283203125
0.023,-2.592529296875,-5.074951171875,5.775634765625
0.0235,-3.753662109375,-4.114013671875,6.135986328125
0.024,-4.634521484375,-2.952880859375,6.216064453125
0.0245,-5.235107421875,-2.112060546875,6.256103515625
0.025,-5.435302734375,-1.351318359375,5.975830078125
0.0255,-5.315185546875,-0.510498046875,5.255126953125
0.026,-5.195068359375,0.650634765625,4.494384765625
0.0265,-5.155029296875,1.931884765625,3.413330078125
0.027,-4.994873046875,2.972900390625,2.412353515625
0.0275,-4.874755859375,3.893798828125,1.571533203125
0.028,-4.314208984375,4.374267578125,0.690673828125
0.0285,-3.473388671875,4.614501953125,-0.470458984375
0.029,-2.512451171875,5.094970703125,-1.711669921875
0.0295,-1.431396484375,5.255126953125,-2.952880859375
0.03,-0.670654296875,5.495361328125,-3.993896484375
0.0305,0.130126953125,5.695556640625,-4.874755859375
0.031,1.131103515625,5.094970703125,-5.395263671875
0.0315,2.252197265625,4.214111328125,-5.795654296875
0.032,3.373291015625,3.173095703125,-6.115966796875
0.0325,4.174072265625,2.132080078125,-6.156005859375
0.033,4.734619140625,1.371337890625,-6.236083984375
0.0335,4.814697265625,0.570556640625,-5.915771484375
0.034,4.734619140625,-0.390380859375,-5.114990234375
0.0345,4.734619140625,-1.431396484375,-4.354248046875
0.035,4.654541015625,-2.592529296875,-3.353271484375
0.0355,4.534423828125,-3.633544921875,-2.432373046875
0.036,4.454345703125,-4.514404296875,-1.631591796875
0.0365,3.813720703125,-4.874755859375,-0.710693359375
0.037,2.932861328125,-5.235107421875,0.450439453125
0.0375,2.011962890625,-5.635498046875,1.731689453125
0.038,1.010986328125,-5.835693359375,2.852783203125
0.0385,0.330322265625,-6.236083984375,3.893798828125
0.039,-0.590576171875,-6.196044921875,4.734619140625
0.0395,-1.591552734375,-5.475341796875,5.135009765625
0.04,-2.712646484375,-4.674560546875,5.655517578125
0.0405,-3.793701171875,-3.673583984375,5.895751953125
0.041,-4.554443359375,-2.712646484375,6.015869140625
0.0415,-5.074951171875,-2.072021484375,6.015869140625
0.042,-5.074951171875,-1.191162109375,5.535400390625
0.0425,-4.994873046875,-0.270263671875,4.814697265625
0.043,-5.074951171875,0.970947265625,4.053955078125
0.0435,-4.994873046875,2.052001953125,3.093017578125
0.044,-4.914794921875,3.052978515625,2.252197265625
0.0445,-4.634521484375,3.813720703125,1.411376953125
0.045,-3.913818359375,4.174072265625,0.450439453125
0.0455,-3.153076171875,4.614501953125,-0.790771484375
0.046,-2.192138671875,4.974853515625,-2.072021484375
0.0465,-1.311279296875,5.295166015625,-3.193115234375
0.047,-0.630615234375,5.615478515625,-4.194091796875
0.0475,0.370361328125,5.375244140625,-4.874755859375
0.048,1.451416015625,4.614501953125,-5.355224609375
0.0485,2.612548828125,3.733642578125,-5.795654296875
0.049,3.573486328125,2.692626953125,-6.035888671875
0.0495,4.334228515625,1.811767578125,-6.156005859375
0.05,4.694580078125,1.131103515625,-6.035888671875
0.0505,4.654541015625,0.290283203125,-5.435302734375
0.051,4.654541015625,-0.790771484375,-4.754638671875
0.0515,4.694580078125,-1.991943359375,-3.833740234375
0.052,4.614501953125,-3.072998046875,-2.912841796875
0.0525,4.574462890625,-4.073974609375,-2.072021484375
0.053,4.093994140625,-4.634521484375,-1.231201171875
0.0535,3.293212890625,-4.994873046875,-0.190185546875
0.054,2.452392578125,-5.475341796875,1.131103515625
0.0545,1.451416015625,-5.755615234375,2.412353515625
0.055,0.650634765625,-6.115966796875,3.493408203125
0.0555,-0.190185546875,-6.316162109375,4.454345703125
0.056,-1.191162109375,-5.755615234375,5.014892578125
0.0565,-2.352294921875,-4.994873046875,5.495361328125
0.057,-3.553466796875,-3.953857421875,5.895751953125
0.0575,-4.434326171875,-2.952880859375,5.975830078125
0.058,-4.994873046875,-2.152099609375,6.095947265625
0.0585,-5.155029296875,-1.351318359375,5.735595703125
0.059,-5.074951171875,-0.430419921875,4.974853515625
0.0595,-5.114990234375,0.770751953125,4.214111328125
0.06,-5.074951171875,1.971923828125,3.173095703125
0.0605,-4.914794921875,3.012939453125,2.252197265625
0.061,-4.754638671875,3.853759765625,1.451416015625
0.0615,-4.073974609375,4.254150390625,0.530517578125
0.062,-3.193115234375,4.574462890625,-0.710693359375
0.0625,-2.232177734375,5.054931640625,-2.031982421875
0.063,-1.271240234375,5.255126953125,-3.193115234375
0.0635,-0.550537109375,5.615478515625,-4.234130859375
0.064,0.370361328125,5.495361328125,-4.994873046875
0.0645,1.451416015625,4.694580078125,-5.435302734375
0.065,2.612548828125,3.773681640625,-5.915771484375
0.0655,3.693603515625,2.652587890625,-6.115966796875
0.066,4.454345703125,1.771728515625,-6.156005859375
0.0665,4.854736328125,1.010986328125,-6.115966796875
0.067,4.814697265625,0.210205078125,-5.595458984375
0.0675,4.734619140625,-0.910888671875,-4.714599609375
0.068,4.774658203125,-2.112060546875,-3.833740234375
0.0685,4.614501953125,-3.193115234375,-2.832763671875
0.069,4.494384765625,-4.194091796875,-1.951904296875
0.0695,4.174072265625,-4.874755859375,-1.111083984375
0.07,3.333251953125,-5.155029296875,0.010009765625
0.0705,2.412353515625,-5.515380859375,1.211181640625
0.071,1.331298828125,-5.835693359375,2.532470703125
0.0715,0.490478515625,-6.115966796875,3.653564453125
0.072,-0.310302734375,-6.396240234375,4.614501953125
0.0725,-1.271240234375,-6.035888671875,5.255126953125
0.073,-2.512451171875,-5.074951171875,5.695556640625
0.0735,-3.673583984375,-4.073974609375,6.055908203125
0.074,-4.554443359375,-2.912841796875,6.135986328125
0.0745,-5.195068359375,-2.031982421875,6.216064453125
0.075,-5.435302734375,-1.271240234375,5.975830078125
0.0755,-5.275146484375,-0.350341796875,5.135009765625
0.076,-5.195068359375,0.810791015625,4.294189453125
0.0765,-5.155029296875,2.092041015625,3.213134765625
0.077,-4.994873046875,3.173095703125,2.212158203125
0.0775,-4.834716796875,4.093994140625,1.331298828125
0.078,-4.234130859375,4.494384765625,0.490478515625
0.0785,-3.233154296875,4.774658203125,-0.710693359375
0.079,-2.272216796875,5.175048828125,-2.072021484375
0.0795,-1.191162109375,5.375244140625,-3.353271484375
0.08,-0.390380859375,5.615478515625,-4.394287109375
0.0805,0.450439453125,5.655517578125,-5.235107421875
0.081,1.531494140625,4.974853515625,-5.715576171875
0.0815,2.732666015625,3.893798828125,-6.156005859375
0.082,3.893798828125,2.812744140625,-6.396240234375
0.0825,4.614501953125,1.771728515625,-6.396240234375
0.083,5.135009765625,0.930908203125,-6.396240234375
0.0835,5.175048828125,0.130126953125,-5.875732421875
0.084,4.974853515625,-0.990966796875,-4.914794921875
0.0845,4.934814453125,-2.232177734375,-3.913818359375
0.085,4.814697265625,-3.473388671875,-2.832763671875
0.0855,4.614501953125,-4.474365234375,-1.791748046875
0.086,4.374267578125,-5.235107421875,-0.990966796875
0.0865,3.533447265625,-5.515380859375,0.050048828125
0.087,2.412353515625,-5.755615234375,1.291259765625
0.0875,1.291259765625,-6.115966796875,2.812744140625
0.088,0.290283203125,-6.276123046875,3.933837890625
0.0885,-0.590576171875,-6.556396484375,4.974853515625
0.089,-1.431396484375,-6.316162109375,5.695556640625
0.0895,-2.712646484375,-5.275146484375,6.055908203125
0.09,-3.953857421875,-4.114013671875,6.456298828125
0.0905,-4.994873046875,-2.872802734375,6.576416015625
0.091,-5.635498046875,-1.791748046875,6.496337890625
0.0915,-5.915771484375,-0.990966796875,6.296142578125
0.092,-5.755615234375,0.010009765625,5.495361328125
0.0925,-5.515380859375,1.251220703125,4.334228515625
0.093,-5.435302734375,2.612548828125,3.173095703125
0.0935,-5.195068359375,3.773681640625,1.971923828125
0.094,-4.954833984375,4.654541015625,1.010986328125
0.0945,-4.394287109375,5.175048828125,0.130126953125
0.095,-3.273193359375,5.295166015625,-1.151123046875
0.0955,-1.991943359375,5.615478515625,-2.592529296875
0.096,-0.750732421875,5.735595703125,-4.033935546875
0.0965,0.210205078125,5.815673828125,-5.034912109375
0.097,0.970947265625,5.895751953125,-5.915771484375
0.0975,1.971923828125,5.135009765625,-6.436279296875
0.098,3.373291015625,3.893798828125,-6.716552734375
0.0985,4.534423828125,2.652587890625,-6.996826171875
0.099,5.375244140625,1.411376953125,-6.836669921875
0.0995,5.735595703125,0.450439453125,-6.676513671875
0.1,5.815673828125,-0.470458984375,-6.156005859375
0.1005,5.455322265625,-1.551513671875,-5.074951171875
0.101,5.175048828125,-2.832763671875,-3.833740234375
0.1015,5.054931640625,-4.154052734375,-2.552490234375
0.102,4.694580078125,-5.114990234375,-1.431396484375
0.1025,4.374267578125,-5.875732421875,-0.590576171875
0.103,3.533447265625,-6.115966796875,0.490478515625
0.1035,2.252197265625,-6.236083984375,1.771728515625
0.104,0.930908203125,-6.436279296875,3.333251953125
0.1045,-0.310302734375,-6.556396484375,4.534423828125
0.105,-1.111083984375,-6.596435546875,5.415283203125
0.1055,-1.871826171875,-6.516357421875,6.176025390625
0.106,-3.032958984375,-5.435302734375,6.536376953125
0.1065,-4.354248046875,-4.154052734375,6.776611328125
0.107,-5.395263671875,-2.872802734375,6.976806640625
0.1075,-5.995849609375,-1.631591796875,6.696533203125
0.108,-6.316162109375,-0.830810546875,6.536376953125
0.1085,-6.156005859375,0.170166015625,5.815673828125
0.109,-5.795654296875,1.291259765625,4.614501953125
0.1095,-5.595458984375,2.612548828125,3.333251953125
0.11,-5.355224609375,3.853759765625,2.052001953125
0.1105,-4.994873046875,4.774658203125,1.010986328125
0.111,-4.554443359375,5.415283203125,0.170166015625
0.1115,-3.553466796875,5.535400390625,-0.990966796875
0.112,-2.232177734375,5.655517578125,-2.352294921875
0.1125,-0.990966796875,5.895751953125,-3.873779296875
0.113,0.210205078125,5.855712890625,-4.994873046875
0.1135,0.890869140625,5.975830078125,-5.875732421875
0.114,1.771728515625,5.615478515625,-6.436279296875
0.1145,3.052978515625,4.494384765625,-6.756591796875
0.115,4.294189453125,3.173095703125,-7.036865234375
0.1155,5.255126953125,1.931884765625,-7.036865234375
0.116,5.735595703125,0.770751953125,-6.796630859375
0.1165,5.935791015625,0.010009765625,-6.556396484375
0.117,5.735595703125,-1.071044921875,-5.635498046875
0.1175,5.375244140625,-2.272216796875,-4.394287109375
0.118,5.215087890625,-3.673583984375,-3.113037109375
0.1185,4.894775390625,-4.794677734375,-1.911865234375
0.119,4.614501953125,-5.635498046875,-0.950927734375
0.1195,4.013916015625,-6.156005859375,0.050048828125
0.12,2.852783203125,-6.276123046875,1.211181640625
0.1205,1.531494140625,-6.436279296875,2.652587890625
0.121,0.250244140625,-6.596435546875,4.134033203125
0.1215,-0.790771484375,-6.676513671875,5.094970703125
0.122,-1.431396484375,-6.716552734375,5.975830078125
0.1225,-2.512451171875,-5.995849609375,6.496337890625
0.123,-3.873779296875,-4.674560546875,6.776611328125
0.1235,-5.074951171875,-3.473388671875,7.056884765625
0.124,-5.835693359375,-2.152099609375,6.896728515625
0.1245,-6.276123046875,-1.151123046875,6.696533203125
0.125,-6.356201171875,-0.310302734375,6.256103515625
0.1255,-6.035888671875,0.890869140625,5.135009765625
0.126,-5.755615234375,2.132080078125,3.893798828125
0.1265,-5.515380859375,3.533447265625,2.532470703125
0.127,-5.195068359375,4.534423828125,1.371337890625
0.1275,-4.834716796875,5.335205078125,0.450439453125
0.128,-3.993896484375,5.615478515625,-0.630615234375
0.1285,-2.712646484375,5.695556640625,-1.951904296875
0.129,-1.391357421875,5.935791015625,-3.513427734375
0.1295,-0.150146484375,5.935791015625,-4.834716796875
0.13,0.770751953125,6.055908203125,-5.755615234375
0.1305,1.491455078125,5.935791015625,-6.476318359375
0.131,2.692626953125,4.934814453125,-6.836669921875
0.1315,4.013916015625,3.573486328125,-7.076904296875
0.132,5.135009765625,2.252197265625,-7.197021484375
0.1325,5.775634765625,0.970947265625,-6.996826171875
0.133,6.135986328125,0.130126953125,-6.796630859375
0.1335,5.975830078125,-0.910888671875,-6.075927734375
0.134,5.615478515625,-2.072021484375,-4.794677734375
0.1345,5.375244140625,-3.393310546875,-3.513427734375
0.135,5.094970703125,-4.714599609375,-2.192138671875
0.1355,4.734619140625,-5.635498046875,-1.071044921875
0.136,4.294189453125,-6.276123046875,-0.190185546875
0.1365,3.213134765625,-6.436279296875,0.970947265625
0.137,1.851806640625,-6.556396484375,2.412353515625
0.1375,0.450439453125,-6.756591796875,3.933837890625
0.138,-0.710693359375,-6.676513671875,5.054931640625
0.1385,-1.431396484375,-6.756591796875,5.935791015625
0.139,-2.272216796875,-6.356201171875,6.536376953125
0.1395,-3.593505859375,-5.074951171875,6.816650390625
0.14,-4.834716796875,-3.793701171875,7.056884765625
0.1405,-5.795654296875,-2.432373046875,7.056884765625
0.141,-6.276123046875,-1.351318359375,6.736572265625
0.1415,-6.436279296875,-0.510498046875,6.416259765625
0.142,-6.156005859375,0.530517578125,5.575439453125
0.1425,-5.795654296875,1.771728515625,4.214111328125
0.143,-5.635498046875,3.133056640625,2.932861328125
0.1435,-5.235107421875,4.174072265625,1.731689453125
0.144,-4.874755859375,5.014892578125,0.730712890625
0.1445,-4.314208984375,5.455322265625,-0.270263671875
0.145,-3.193115234375,5.535400390625,-1.311279296875
0.1455,-1.951904296875,5.695556640625,-2.752685546875
0.146,-0.590576171875,5.855712890625,-4.194091796875
0.1465,0.370361328125,5.895751953125,-5.155029296875
0.147,1.051025390625,5.975830078125,-5.995849609375
0.1475,2.011962890625,5.375244140625,-6.476318359375
0.148,3.253173828125,4.134033203125,-6.716552734375
0.1485,4.414306640625,2.932861328125,-6.956787109375
0.149,5.215087890625,1.731689453125,-6.836669921875
0.1495,5.695556640625,0.690673828125,-6.716552734375
0.15,5.775634765625,-0.150146484375,-6.356201171875
0.1505,5.455322265625,-1.151123046875,-5.395263671875
0.151,5.255126953125,-2.272216796875,-4.274169921875
0.1515,5.054931640625,-3.593505859375,-3.032958984375
0.152,4.774658203125,-4.634521484375,-1.911865234375
0.1525,4.534423828125,-5.515380859375,-1.031005859375
0.153,3.853759765625,-5.915771484375,0.010009765625
0.1535,2.732666015625,-6.115966796875,1.131103515625
0.154,1.571533203125,-6.316162109375,2.572509765625
0.1545,0.330322265625,-6.396240234375,3.853759765625
0.155,-0.590576171875,-6.516357421875,4.854736328125
0.1555,-1.271240234375,-6.596435546875,5.735595703125
0.156,-2.312255859375,-5.795654296875,6.135986328125
0.1565,-3.633544921875,-4.634521484375,6.536376953125
0.157,-4.794677734375,-3.473388671875,6.696533203125
0.1575,-5.515380859375,-2.272216796875,6.616455078125
0.158,-5.955810546875,-1.431396484375,6.536376953125
0.1585,-5.955810546875,-0.590576171875,6.015869140625
0.159,-5.715576171875,0.610595703125,4.974853515625
0.1595,-5.555419921875,1.771728515625,3.893798828125
0.16,-5.355224609375,3.093017578125,2.692626953125
0.1605,-5.074951171875,4.013916015625,1.611572265625
0.161,-4.794677734375,4.814697265625,0.770751953125
0.1615,-3.953857421875,5.094970703125,-0.350341796875
0.162,-2.792724609375,5.255126953125,-1.551513671875
0.1625,-1.591552734375,5.615478515625,-3.032958984375
0.163,-0.510498046875,5.655517578125,-4.154052734375
0.1635,0.290283203125,5.855712890625,-5.114990234375
0.164,1.091064453125,5.695556640625,-5.835693359375
0.1645,2.252197265625,4.734619140625,-6.196044921875
0.165,3.453369140625,3.653564453125,-6.556396484375
0.1655,4.494384765625,2.412353515625,-6.596435546875
0.166,5.094970703125,1.331298828125,-6.516357421875
0.1665,5.415283203125,0.610595703125,-6.396240234375
0.167,5.335205078125,-0.390380859375,-5.715576171875
0.1675,5.054931640625,-1.431396484375,-4.674560546875
0.168,4.974853515625,-2.632568359375,-3.673583984375
0.1685,4.734619140625,-3.833740234375,-2.512451171875
0.169,4.534423828125,-4.754638671875,-1.591552734375
0.1695,4.134033203125,-5.395263671875,-0.790771484375
0.17,3.253173828125,-5.595458984375,0.330322265625
0.1705,2.252197265625,-5.835693359375,1.571533203125
0.171,1.051025390625,-6.075927734375,2.932861328125
0.1715,0.170166015625,-6.196044921875,3.973876953125
0.172,-0.630615234375,-6.476318359375,4.934814453125
0.1725,-1.511474609375,-6.115966796875,5.495361328125
0.173,-2.672607421875,-5.114990234375,5.895751953125
0.1735,-3.833740234375,-4.114013671875,6.256103515625
0.174,-4.714599609375,-2.952880859375,6.336181640625
0.1745,-5.315185546875,-2.031982421875,6.296142578125
0.175,-5.555419921875,-1.271240234375,6.095947265625
0.1755,-5.435302734375,-0.390380859375,5.375244140625
0.176,-5.275146484375,0.690673828125,4.494384765625
0.1765,-5.235107421875,1.931884765625,3.453369140625
0.177,-5.034912109375,2.972900390625,2.412353515625
0.1775,-4.914794921875,3.893798828125,1.531494140625
0.178,-4.354248046875,4.454345703125,0.650634765625
0.1785,-3.473388671875,4.734619140625,-0.510498046875
0.179,-2.552490234375,5.135009765625,-1.711669921875
0.1795,-1.431396484375,5.295166015625,-3.032958984375
0.18,-0.630615234375,5.575439453125,-4.033935546875
0.1805,0.170166015625,5.735595703125,-4.954833984375
0.181,1.131103515625,5.215087890625,-5.475341796875
0.1815,2.292236328125,4.334228515625,-5.915771484375
0.182,3.453369140625,3.253173828125,-6.276123046875
0.1825,4.214111328125,2.212158203125,-6.276123046875
0.183,4.814697265625,1.411376953125,-6.356201171875
0.1835,4.974853515625,0.610595703125,-5.995849609375
0.184,4.854736328125,-0.430419921875,-5.235107421875
0.1845,4.814697265625,-1.511474609375,-4.434326171875
0.185,4.774658203125,-2.712646484375,-3.393310546875
0.1855,4.574462890625,-3.753662109375,-2.432373046875
0.186,4.494384765625,-4.554443359375,-1.591552734375
0.1865,3.853759765625,-4.994873046875,-0.710693359375
0.187,2.932861328125,-5.315185546875,0.490478515625
0.1875,1.931884765625,-5.755615234375,1.771728515625
0.188,0.970947265625,-5.915771484375,2.932861328125
