wavelength,x,y,z
0.0,11.6513671875,-7.5673828125,-4.484375
0.0005,10.8505859375,-8.8486328125,-2.4423828125
0.001,10.6103515625,-10.330078125,-0.640625
0.0015,9.4892578125,-11.1708984375,1.4013671875
0.002,7.607421875,-10.5302734375,2.802734375
0.0025,5.9658203125,-10.6904296875,4.6044921875
0.003,3.3232421875,-10.3701171875,6.966796875
0.0035,1.3212890625,-9.6494140625,8.16796875
0.004,-0.7607421875,-9.5693359375,10.0498046875
0.0045,-2.642578125,-7.84765625,10.25
0.005,-3.923828125,-6.56640625,10.2099609375
0.0055,-6.7265625,-4.1240234375,10.5302734375
0.006,-8.48828125,-1.8017578125,9.9296875
0.0065,-9.849609375,0.240234375,9.3291015625
0.007,-11.2509765625,1.921875,9.0087890625
0.0075,-11.05078125,3.763671875,6.966796875
0.008,-11.0908203125,5.1650390625,5.60546875
0.0085,-11.2509765625,7.6875,3.1630859375
0.009,-10.2900390625,8.6884765625,1.12109375
0.0095,-10.169921875,10.0498046875,-0.5205078125
0.01,-8.80859375,10.5703125,-2.40234375
0.0105,-6.9267578125,10.009765625,-3.7236328125
0.011,-5.0849609375,10.169921875,-5.7255859375
0.0115,-2.642578125,9.849609375,-7.8076171875
0.012,-0.8408203125,9.0888671875,-8.8486328125
0.0125,1.041015625,8.96875,-10.490234375
0.013,2.962890625,7.1669921875,-10.5703125
0.0135,4.3642578125,5.7255859375,-10.5302734375
0.014,7.126953125,3.3232421875,-10.8505859375
0.0145,8.7685546875,0.9609375,-10.0498046875
0.015,9.9296875,-0.720703125,-9.689453125
0.0155,11.130859375,-2.322265625,-9.2490234375
0.016,10.8505859375,-4.1240234375,-7.1669921875
0.0165,10.890625,-5.765625,-5.5654296875
0.017,11.0908203125,-8.248046875,-3.283203125
0.0175,10.009765625,-9.0087890625,-1.4013671875
0.018,9.9697265625,-10.25,0.080078125
0.0185,8.2880859375,-10.4501953125,2.0419921875
0.019,6.40625,-9.9697265625,3.443359375
0.0195,4.484375,-10.169921875,5.60546875
0.02,2.0419921875,-9.8095703125,7.6474609375
0.0205,0.3203125,-9.0087890625,8.48828125
0.021,-1.361328125,-8.8486328125,9.9296875
0.0215,-3.4033203125,-6.8466796875,9.9296875
0.022,-5.125,-5.044921875,9.8896484375
0.0225,-7.8876953125,-2.72265625,10.2099609375
0.023,-9.2890625,-0.3203125,9.2490234375
0.0235,-10.25,1.0810546875,8.9287109375
0.024,-11.2109375,2.6826171875,8.16796875
0.0245,-10.890625,4.6044921875,5.8857421875
0.025,-10.890625,6.5263671875,3.9638671875
0.0255,-11.05078125,8.888671875,1.6416015625
0.026,-9.689453125,9.4091796875,-0.2802734375
0.0265,-9.6494140625,10.41015625,-1.361328125
0.027,-7.6875,10.490234375,-3.4033203125
0.0275,-5.4853515625,9.9296875,-5.0849609375
0.028,-3.4833984375,10.169921875,-7.287109375
0.0285,-1.0009765625,9.609375,-9.1689453125
0.029,0.6806640625,8.6484375,-9.8095703125
0.0295,2.1220703125,8.3681640625,-10.9306640625
0.03,4.32421875,6.0859375,-10.890625
0.0305,6.326171875,3.9638671875,-10.650390625
0.031,9.0888671875,1.44140625,-10.890625
0.0315,10.2099609375,-0.9609375,-9.7294921875
0.032,10.890625,-1.921875,-9.4091796875
0.0325,11.5712890625,-3.7236328125,-8.328125
0.033,11.2109375,-5.8056640625,-5.8056640625
0.0335,11.130859375,-7.84765625,-3.763671875
0.034,11.130859375,-10.0498046875,-1.4013671875
0.0345,9.5693359375,-10.169921875,0.48046875
0.035,9.4091796875,-10.890625,1.361328125
0.0355,7.126953125,-10.8505859375,3.5634765625
0.036,4.64453125,-10.2099609375,5.4453125
0.0365,2.5224609375,-10.41015625,7.7275390625
0.037,0.0400390625,-9.609375,9.44921875
0.0375,-1.44140625,-8.6083984375,9.76953125
0.038,-2.7626953125,-8.087890625,10.5703125
0.0385,-5.205078125,-5.6455078125,10.490234375
0.039,-7.2470703125,-3.2431640625,10.169921875
0.0395,-9.9697265625,-0.6806640625,10.2900390625
0.04,-10.7705078125,1.4814453125,8.96875
0.0405,-11.2109375,2.2822265625,8.48828125
0.041,-11.6513671875,4.32421875,7.0068359375
0.0415,-11.2109375,6.40625,4.32421875
0.042,-11.05078125,8.4482421875,2.2021484375
0.0425,-10.890625,10.490234375,-0.16015625
0.043,-9.208984375,10.330078125,-1.7216796875
0.0435,-8.80859375,10.810546875,-2.6025390625
0.044,-6.326171875,10.6103515625,-4.96484375
0.0445,-3.8837890625,9.9697265625,-6.7265625
0.045,-1.6416015625,10.08984375,-9.048828125
0.0455,0.80078125,9.12890625,-10.41015625
0.046,1.8818359375,8.16796875,-10.5302734375
0.0465,3.3232421875,7.287109375,-11.0908203125
0.047,5.845703125,4.6845703125,-10.9306640625
0.0475,7.767578125,2.40234375,-10.5703125
0.048,10.2900390625,0.0,-10.650390625
0.0485,10.8505859375,-2.001953125,-9.2890625
0.049,11.1708984375,-2.8828125,-8.80859375
0.0495,11.53125,-5.0849609375,-6.9267578125
0.05,11.0107421875,-6.88671875,-4.484375
0.0505,10.9306640625,-8.8486328125,-2.40234375
0.051,10.5302734375,-10.5703125,-0.2802734375
0.0515,8.96875,-10.2900390625,1.201171875
0.052,8.328125,-10.650390625,2.162109375
0.0525,5.7255859375,-10.4501953125,4.64453125
0.053,3.4833984375,-9.9296875,6.326171875
0.0535,1.201171875,-9.9697265625,8.6884765625
0.054,-1.0009765625,-8.96875,9.7294921875
0.0545,-1.9619140625,-8.087890625,9.76953125
0.055,-3.8037109375,-6.806640625,10.2900390625
0.0555,-6.2861328125,-4.2041015625,10.169921875
0.056,-8.0478515625,-2.08203125,9.7294921875
0.0565,-10.41015625,0.240234375,9.8095703125
0.057,-10.73046875,1.9619140625,8.328125
0.0575,-11.05078125,2.962890625,7.6474609375
0.058,-11.3310546875,5.4853515625,5.4853515625
0.0585,-10.890625,7.1669921875,3.283203125
0.059,-10.73046875,9.048828125,1.28125
0.0595,-10.25,10.5302734375,-0.880859375
0.06,-8.568359375,10.169921875,-2.2021484375
0.0605,-7.6474609375,10.4501953125,-3.443359375
0.061,-4.8447265625,10.2900390625,-6.0859375
0.0615,-2.7626953125,9.7294921875,-7.5673828125
0.062,-0.560546875,9.7294921875,-9.8095703125
0.0625,1.5615234375,8.6484375,-10.650390625
0.063,2.642578125,7.52734375,-10.6103515625
0.0635,4.8447265625,5.8056640625,-11.0908203125
0.064,7.3271484375,3.203125,-10.890625
0.0645,8.9287109375,0.9609375,-10.2900390625
0.065,10.970703125,-1.0810546875,-10.41015625
0.0655,11.2509765625,-3.0029296875,-8.7685546875
0.066,11.37109375,-4.1240234375,-7.6875
0.0665,11.6513671875,-6.7265625,-5.28515625
0.067,11.05078125,-8.328125,-3.0830078125
0.0675,10.73046875,-9.76953125,-1.28125
0.068,10.169921875,-11.1708984375,0.880859375
0.0685,8.0478515625,-10.6103515625,2.482421875
0.069,6.7265625,-10.7705078125,3.8837890625
0.0695,3.9638671875,-10.650390625,6.56640625
0.07,1.921875,-9.8896484375,7.8876953125
0.0705,-0.2802734375,-9.8095703125,9.8095703125
0.071,-2.3623046875,-8.5283203125,10.6103515625
0.0715,-3.7236328125,-6.966796875,10.3701171875
0.072,-6.1259765625,-4.884765625,10.73046875
0.0725,-8.5283203125,-2.3623046875,10.490234375
0.073,-9.76953125,-0.16015625,9.529296875
0.0735,-11.53125,1.5615234375,9.609375
0.074,-11.611328125,3.68359375,7.607421875
0.0745,-11.4912109375,5.044921875,6.0859375
0.075,-11.69140625,7.6474609375,3.68359375
0.0755,-10.9306640625,9.0888671875,1.4013671875
0.076,-10.330078125,10.169921875,-0.3603515625
0.0765,-9.689453125,11.3310546875,-2.2421875
0.077,-7.287109375,10.6103515625,-4.00390625
0.0775,-5.765625,10.5703125,-5.4853515625
0.078,-3.04296875,10.490234375,-8.087890625
0.0785,-0.9208984375,9.44921875,-9.1689453125
0.079,0.9208984375,9.369140625,-10.7705078125
0.0795,3.04296875,7.8876953125,-11.37109375
0.08,4.484375,6.0458984375,-11.0107421875
0.0805,7.046875,3.8037109375,-11.2509765625
0.081,9.208984375,1.201171875,-10.8505859375
0.0815,10.169921875,-0.9208984375,-9.8896484375
0.082,11.69140625,-2.2021484375,-9.9296875
0.0825,11.5712890625,-4.2841796875,-7.7275390625
0.083,11.3310546875,-5.7255859375,-6.005859375
0.0835,11.611328125,-8.2880859375,-3.7236328125
0.084,10.650390625,-9.4892578125,-1.44140625
0.0845,10.1298828125,-10.41015625,0.080078125
0.085,9.2490234375,-11.2509765625,1.921875
0.0855,6.7666015625,-10.5302734375,3.603515625
0.086,5.044921875,-10.4501953125,5.3251953125
0.0865,2.5224609375,-10.41015625,7.767578125
0.087,0.48046875,-9.2890625,8.6884765625
0.0875,-1.1611328125,-9.2490234375,10.169921875
0.088,-3.203125,-7.5673828125,10.5302734375
0.0885,-4.884765625,-5.7255859375,10.2099609375
0.089,-7.52734375,-3.36328125,10.4501953125
0.0895,-9.4892578125,-0.8408203125,9.8896484375
0.09,-10.25,1.0009765625,8.96875
0.0905,-11.53125,2.2822265625,8.9287109375
0.091,-11.291015625,4.404296875,6.5263671875
0.0915,-11.05078125,6.0859375,4.6044921875
0.092,-11.37109375,8.6083984375,2.40234375
0.0925,-10.2099609375,9.529296875,0.240234375
0.093,-9.76953125,10.2900390625,-1.12109375
0.0935,-8.6083984375,10.8505859375,-2.8828125
0.094,-6.1259765625,10.169921875,-4.6845703125
0.0945,-4.244140625,10.1298828125,-6.486328125
0.095,-1.76171875,10.009765625,-8.8486328125
0.0955,0.240234375,8.80859375,-9.529296875
0.096,1.5615234375,8.7685546875,-10.7705078125
0.0965,3.68359375,6.806640625,-11.0107421875
0.097,5.4853515625,4.6845703125,-10.650390625
0.0975,8.16796875,2.2822265625,-10.9306640625
0.098,9.8896484375,-0.2001953125,-10.1298828125
0.0985,10.490234375,-1.5615234375,-9.369140625
0.099,11.451171875,-2.802734375,-9.048828125
0.0995,11.2109375,-4.96484375,-6.6064453125
0.1,10.9306640625,-6.7265625,-4.564453125
0.1005,11.2509765625,-9.2490234375,-2.322265625
0.101,9.8896484375,-9.8095703125,-0.3203125
0.1015,9.529296875,-10.4501953125,0.7607421875
0.102,8.0478515625,-10.7705078125,2.6025390625
0.1025,5.4853515625,-10.08984375,4.484375
0.103,3.5234375,-10.1298828125,6.4462890625
0.1035,1.0810546875,-9.849609375,8.6484375
0.104,-0.720703125,-8.6884765625,9.0888671875
0.1045,-1.8818359375,-8.568359375,10.08984375
0.105,-4.083984375,-6.4462890625,10.2099609375
0.1055,-6.005859375,-4.244140625,9.849609375
0.106,-8.6884765625,-1.8017578125,10.08984375
0.1065,-10.0498046875,0.6005859375,9.1689453125
0.107,-10.4501953125,1.6416015625,8.48828125
0.1075,-11.2509765625,3.0830078125,7.8076171875
0.108,-10.890625,5.28515625,5.2451171875
0.1085,-10.6904296875,7.126953125,3.1630859375
0.109,-10.890625,9.4892578125,0.9609375
0.1095,-9.4091796875,9.7294921875,-0.9609375
0.11,-9.0888671875,10.2099609375,-1.76171875
0.1105,-7.287109375,10.330078125,-3.7236328125
0.111,-4.7646484375,9.689453125,-5.60546875
0.1115,-2.72265625,9.8095703125,-7.6875
0.112,-0.3603515625,9.2890625,-9.529296875
0.1125,1.12109375,8.16796875,-9.849609375
0.113,2.2421875,7.84765625,-10.6103515625
0.1135,4.484375,5.5654296875,-10.6103515625
0.114,6.4462890625,3.36328125,-10.25
0.1145,9.12890625,0.9208984375,-10.4501953125
0.115,10.1298828125,-1.1611328125,-9.44921875
0.1155,10.5302734375,-2.0419921875,-8.888671875
0.116,11.05078125,-3.68359375,-7.8076171875
0.1165,10.73046875,-5.765625,-5.3251953125
0.117,10.6103515625,-7.6474609375,-3.3232421875
0.1175,10.6103515625,-9.76953125,-1.1611328125
0.118,9.12890625,-9.76953125,0.48046875
0.1185,8.7685546875,-10.169921875,1.28125
0.119,6.6865234375,-10.169921875,3.443359375
0.1195,4.2841796875,-9.6494140625,5.2451171875
0.12,2.162109375,-9.76953125,7.4873046875
0.1205,0.0,-9.1689453125,8.96875
0.121,-1.28125,-8.2080078125,9.208984375
0.1215,-2.642578125,-7.5673828125,9.9296875
0.122,-5.0849609375,-5.0849609375,9.849609375
0.1225,-6.88671875,-3.0029296875,9.529296875
0.123,-9.4091796875,-0.640625,9.689453125
0.1235,-10.1298828125,1.28125,8.568359375
0.124,-10.4501953125,2.162109375,7.9677734375
0.1245,-10.890625,4.1240234375,6.40625
0.125,-10.5703125,6.2060546875,4.00390625
0.1255,-10.4501953125,8.0078125,2.08203125
0.126,-10.2900390625,9.8896484375,0.0
0.1265,-8.8486328125,9.7294921875,-1.521484375
0.127,-8.2080078125,10.009765625,-2.4423828125
0.1275,-5.8056640625,10.009765625,-4.8447265625
0.128,-3.5634765625,9.529296875,-6.5263671875
0.1285,-1.44140625,9.609375,-8.6884765625
0.129,0.80078125,8.7685546875,-10.0498046875
0.1295,1.8818359375,7.8076171875,-10.08984375
0.13,3.443359375,6.6865234375,-10.5703125
0.1305,6.0859375,4.1240234375,-10.6103515625
0.131,7.7275390625,2.001953125,-10.1298828125
0.1315,10.08984375,-0.240234375,-10.2900390625
0.132,10.6904296875,-2.08203125,-9.048828125
0.1325,10.8505859375,-3.203125,-8.1279296875
0.133,11.2509765625,-5.4453125,-6.2060546875
0.1335,10.890625,-7.3671875,-3.8837890625
0.134,10.5703125,-8.8486328125,-2.08203125
0.1345,10.330078125,-10.5703125,0.0400390625
0.135,8.5283203125,-10.25,1.6015625
0.1355,7.52734375,-10.41015625,2.7626953125
0.136,4.9248046875,-10.41015625,5.4052734375
0.1365,2.802734375,-9.76953125,6.88671875
0.137,0.640625,-9.76953125,8.9287109375
0.1375,-1.4814453125,-8.888671875,10.0498046875
0.138,-2.802734375,-7.447265625,9.9296875
0.1385,-4.7646484375,-5.92578125,10.3701171875
0.139,-7.447265625,-3.2431640625,10.3701171875
0.1395,-8.8486328125,-1.041015625,9.529296875
0.14,-10.810546875,0.8408203125,9.6494140625
0.1405,-11.291015625,2.8828125,8.087890625
0.141,-11.2109375,4.1240234375,6.6865234375
0.1415,-11.4912109375,6.5263671875,4.6044921875
0.142,-11.0107421875,8.3681640625,2.2421875
0.1425,-10.330078125,9.44921875,0.48046875
0.143,-10.1298828125,10.970703125,-1.4814453125
0.1435,-7.8876953125,10.5302734375,-3.283203125
0.144,-6.5263671875,10.490234375,-4.564453125
0.1445,-3.923828125,10.5302734375,-7.20703125
0.145,-1.6416015625,9.609375,-8.6484375
0.1455,0.2802734375,9.4091796875,-10.25
0.146,2.3623046875,8.408203125,-11.2509765625
0.1465,3.923828125,6.646484375,-10.970703125
0.147,6.0458984375,4.724609375,-11.2109375
0.1475,8.6884765625,2.0419921875,-11.1708984375
0.148,9.7294921875,-0.2802734375,-9.9697265625
0.1485,11.451171875,-1.7216796875,-10.169921875
0.149,11.771484375,-3.8037109375,-8.328125
0.1495,11.4912109375,-5.2451171875,-6.6064453125
0.15,11.69140625,-7.6474609375,-4.4443359375
0.1505,11.0908203125,-9.369140625,-2.001953125
0.151,10.2099609375,-10.1298828125,-0.3603515625
0.1515,9.8896484375,-11.451171875,1.4013671875
0.152,7.3671875,-10.890625,3.36328125
0.1525,5.7255859375,-10.6103515625,4.7646484375
0.153,3.203125,-10.7705078125,7.4072265625
0.1535,0.80078125,-9.6494140625,8.6484375
0.154,-0.8408203125,-9.4091796875,9.9697265625
0.1545,-2.8828125,-8.2080078125,10.8505859375
0.155,-4.64453125,-6.166015625,10.5302734375
0.1555,-6.966796875,-3.9638671875,10.6103515625
0.156,-9.4892578125,-1.4013671875,10.490234375
0.1565,-10.25,0.8408203125,9.12890625
0.157,-11.69140625,2.0419921875,9.3291015625
0.1575,-11.771484375,4.2041015625,7.20703125
0.158,-11.4111328125,5.845703125,5.205078125
0.1585,-11.6513671875,8.2880859375,3.0029296875
0.159,-10.8505859375,9.849609375,0.560546875
0.1595,-9.8896484375,10.330078125,-1.041015625
0.16,-9.4091796875,11.37109375,-2.5625
0.1605,-6.7265625,10.73046875,-4.64453125
0.161,-4.8447265625,10.3701171875,-6.2861328125
0.1615,-2.3623046875,10.5302734375,-8.8486328125
0.162,0.080078125,9.208984375,-9.8896484375
0.1625,1.44140625,9.0087890625,-10.9306640625
0.163,3.4833984375,7.6474609375,-11.5712890625
0.1635,5.4052734375,5.365234375,-11.2109375
0.164,7.84765625,3.0029296875,-11.2509765625
0.1645,10.2099609375,0.3203125,-10.890625
0.165,10.73046875,-1.6015625,-9.529296875
0.1655,11.931640625,-2.6025390625,-9.7294921875
0.166,11.8916015625,-4.9248046875,-7.4072265625
0.1665,11.451171875,-6.7265625,-5.125
0.167,11.771484375,-9.1689453125,-2.8828125
0.1675,10.6904296875,-10.4501953125,-0.48046875
0.168,9.689453125,-10.7705078125,0.9208984375
0.1685,8.96875,-11.4912109375,2.40234375
0.169,6.166015625,-10.890625,4.5244140625
0.1695,4.0439453125,-10.5703125,6.3662109375
0.17,1.5615234375,-10.6904296875,8.9287109375
0.1705,-0.80078125,-9.12890625,9.6494140625
0.171,-1.8818359375,-8.96875,10.5302734375
0.1715,-4.00390625,-7.2470703125,10.970703125
0.172,-6.0859375,-4.8447265625,10.5302734375
0.1725,-8.6083984375,-2.322265625,10.5302734375
0.173,-10.7705078125,0.3603515625,10.1298828125
0.1735,-10.970703125,1.921875,8.6884765625
0.174,-11.8916015625,2.9228515625,8.6484375
0.1745,-11.8115234375,5.4453125,6.0458984375
0.175,-11.291015625,7.2470703125,3.68359375
0.1755,-11.53125,9.76953125,1.361328125
0.176,-10.330078125,10.73046875,-1.0009765625
0.1765,-9.3291015625,10.7705078125,-2.001953125
0.177,-8.328125,11.2509765625,-3.603515625
0.1775,-5.4453125,10.5703125,-5.8857421875
0.178,-3.1630859375,10.2099609375,-7.8076171875
0.1785,-0.720703125,10.2900390625,-10.169921875
0.179,1.521484375,8.6884765625,-10.650390625
0.1795,2.3623046875,8.4482421875,-11.2509765625
0.18,4.64453125,6.486328125,-11.5712890625
0.1805,6.7265625,3.9638671875,-11.130859375
0.181,9.2890625,1.3212890625,-11.05078125
0.1815,11.2109375,-1.12109375,-10.5302734375
0.182,11.2509765625,-2.5224609375,-9.12890625
0.1825,11.9716796875,-3.6435546875,-8.728515625
0.183,11.8916015625,-6.2861328125,-5.9658203125
0.1835,11.3310546875,-7.927734375,-3.8037109375
0.184,11.4912109375,-10.3701171875,-1.44140625
0.1845,10.1298828125,-11.05078125,0.80078125
0.185,9.048828125,-10.970703125,1.7216796875
0.1855,7.6875,-11.3310546875,3.4833984375
0.186,4.8046875,-10.7705078125,5.765625
0.1865,2.5224609375,-10.330078125,7.7275390625
0.187,0.080078125,-10.25,10.0498046875
0.1875,-1.921875,-8.6884765625,10.2900390625
0.188,-2.7626953125,-8.2080078125,10.650390625
0.1885,-5.4453125,-5.845703125,11.0107421875
0.189,-7.4072265625,-3.443359375,10.490234375
0.1895,-9.76953125,-0.9208984375,10.2900390625
0.19,-11.451171875,1.4013671875,9.7294921875
0.1905,-11.4111328125,2.8427734375,8.16796875
0.191,-11.8916015625,4.2041015625,7.3671875
0.1915,-11.8515625,6.966796875,4.484375
0.192,-11.2109375,8.3681640625,2.40234375
0.1925,-11.2109375,10.6103515625,0.16015625
0.193,-9.76953125,11.0908203125,-1.9619140625
0.1935,-8.48828125,10.810546875,-2.9228515625
0.194,-6.7666015625,11.05078125,-5.0048828125
0.1945,-3.9638671875,10.5302734375,-7.20703125
0.195,-1.7216796875,10.08984375,-8.96875
0.1955,0.6806640625,9.849609375,-11.05078125
0.196,2.482421875,8.2080078125,-11.0908203125
0.1965,3.5234375,7.3671875,-11.3310546875
0.197,6.4462890625,4.8046875,-11.6513671875
0.1975,8.248046875,2.40234375,-11.0107421875
0.198,10.2900390625,0.0400390625,-10.7705078125
0.1985,11.8115234375,-2.08203125,-10.1298828125
0.199,11.6513671875,-3.68359375,-8.328125
0.1995,12.01171875,-5.205078125,-7.20703125
0.2,11.8916015625,-7.84765625,-4.404296875
0.2005,11.130859375,-9.048828125,-2.40234375
0.201,11.0908203125,-11.05078125,-0.3603515625
0.2015,9.44921875,-11.4111328125,1.76171875
0.202,7.8876953125,-11.0107421875,2.8828125
0.2025,5.8857421875,-11.1708984375,5.1650390625
0.203,3.2431640625,-10.6103515625,7.287109375
0.2035,1.12109375,-10.009765625,8.7685546875
0.204,-1.1611328125,-9.76953125,10.650390625
0.2045,-3.0029296875,-7.927734375,10.650390625
0.205,-4.3642578125,-6.7265625,10.73046875
0.2055,-7.3271484375,-4.00390625,11.0107421875
0.206,-8.96875,-1.6015625,10.2099609375
0.2065,-10.6103515625,0.48046875,9.849609375
0.207,-11.8916015625,2.4423828125,9.12890625
0.2075,-11.5712890625,4.1640625,7.0869140625
0.208,-11.7314453125,5.8056640625,5.60546875
0.2085,-11.7314453125,8.3681640625,2.962890625
0.209,-10.650390625,9.2490234375,0.9208984375
0.2095,-10.6103515625,10.9306640625,-0.9208984375
0.21,-8.8486328125,11.130859375,-3.04296875
0.2105,-7.0869140625,10.6103515625,-4.2041015625
0.211,-4.9248046875,10.810546875,-6.5263671875
0.2115,-2.40234375,10.25,-8.48828125
0.212,-0.4404296875,9.529296875,-9.6494140625
0.2125,1.6015625,9.2490234375,-11.291015625
0.213,3.603515625,7.20703125,-11.2509765625
0.2135,5.044921875,5.7255859375,-11.2109375
0.214,8.0078125,3.0830078125,-11.4912109375
0.2145,9.529296875,0.6005859375,-10.4501953125
0.215,10.890625,-1.201171875,-10.169921875
0.2155,11.8916015625,-2.962890625,-9.3291015625
0.216,11.53125,-4.7646484375,-7.1669921875
0.2165,11.5712890625,-6.56640625,-5.4453125
0.217,11.6513671875,-9.0087890625,-2.962890625
0.2175,10.3701171875,-9.7294921875,-1.0009765625
0.218,10.3701171875,-11.1708984375,0.560546875
0.2185,8.2880859375,-11.130859375,2.72265625
0.219,6.40625,-10.5703125,4.00390625
0.2195,4.2841796875,-10.7705078125,6.40625
0.22,1.76171875,-10.169921875,8.328125
0.2205,-0.16015625,-9.369140625,9.2890625
0.221,-1.9619140625,-9.048828125,10.73046875
0.2215,-4.00390625,-6.8466796875,10.5703125
0.222,-5.765625,-5.0048828125,10.490234375
0.2225,-8.6884765625,-2.4423828125,10.810546875
0.223,-9.9296875,0.1201171875,9.529296875
0.2235,-11.05078125,1.44140625,9.2890625
