wavelength,x,y,z
0.0,20.935424804688,-13.097778320312,-7.2120361328125
0.0005,21.175659179688,-10.014770507812,-10.375122070312
0.001,20.414916992188,-5.1700439453125,-14.459106445312
0.0015,19.053588867188,-0.8858642578125,-17.381958007812
0.002,17.411987304688,2.7176513671875,-19.383911132812
0.0025,15.770385742188,5.8006591796875,-20.825317382812
0.003,12.607299804688,8.7235107421875,-20.665161132812
0.0035,8.3631591796875,12.447143554688,-20.264770507812
0.004,3.8787841796875,15.730346679688,-17.942504882812
0.0045,-1.3262939453125,18.693237304688,-17.301879882812
0.005,-4.6094970703125,20.014526367188,-15.660278320312
0.0055,-7.2520751953125,20.454956054688,-13.618286132812
0.006,-8.9737548828125,20.695190429688,-11.055786132812
0.0065,-14.379028320312,19.534057617188,-5.9708251953125
0.007,-17.341918945312,18.172729492188,-1.7266845703125
0.0075,-19.624145507812,16.491088867188,2.2371826171875
0.008,-20.825317382812,14.769409179688,6.4012451171875
0.0085,-20.785278320312,11.806518554688,8.0028076171875
0.009,-20.745239257812,8.2030029296875,11.566284179688
0.0095,-19.944458007812,3.9588623046875,15.049682617188
0.01,-18.583129882812,-0.6055908203125,18.092651367188
0.0105,-16.821411132812,-3.8087158203125,19.694213867188
0.011,-14.939575195312,-6.4913330078125,20.535034179688
0.0115,-12.016723632812,-9.4542236328125,20.695190429688
0.012,-6.7315673828125,-13.578247070312,19.694213867188
0.0125,-2.2872314453125,-16.541137695312,18.412963867188
0.013,2.1971435546875,-18.983520507812,17.932495117188
0.0135,5.2000732421875,-20.264770507812,15.129760742188
0.014,8.0028076171875,-20.224731445312,12.487182617188
0.0145,11.165893554688,-20.344848632812,9.6444091796875
0.015,15.009643554688,-17.942504882812,4.8797607421875
0.0155,18.012573242188,-17.542114257812,0.2752685546875
0.016,19.654174804688,-15.940551757812,-2.9278564453125
0.0165,20.535034179688,-14.058715820312,-5.7706298828125
0.017,21.776245117188,-11.095825195312,-8.6534423828125
0.0175,20.054565429688,-6.5714111328125,-12.697387695312
0.018,20.494995117188,-2.7677001953125,-15.660278320312
0.0185,17.772338867188,1.4364013671875,-18.463012695312
0.019,16.050659179688,4.4793701171875,-19.824340820312
0.0195,13.408081054688,7.2020263671875,-20.064575195312
0.02,10.525268554688,10.405151367188,-20.384887695312
0.0205,5.0799560546875,14.449096679688,-19.143676757812
0.021,0.3153076171875,17.331909179688,-17.502075195312
0.0215,-3.2081298828125,19.133666992188,-16.020629882812
0.022,-6.0909423828125,20.214721679688,-14.419067382812
0.0225,-9.0938720703125,20.054565429688,-11.496215820312
0.023,-12.657348632812,19.614135742188,-6.4112548828125
0.0235,-16.020629882812,18.613159179688,-3.4884033203125
0.024,-18.903442382812,16.691284179688,2.5574951171875
0.0245,-20.104614257812,15.049682617188,4.1190185546875
0.025,-20.585083007812,12.687377929688,6.9217529296875
0.0255,-20.665161132812,9.7244873046875,9.9246826171875
0.026,-19.904418945312,4.8397216796875,14.048706054688
0.0265,-18.623168945312,0.7957763671875,16.891479492188
0.027,-17.261840820312,-2.8477783203125,19.093627929688
0.0275,-15.540161132812,-5.6905517578125,20.294799804688
0.028,-12.337036132812,-8.6534423828125,20.174682617188
0.0285,-8.6134033203125,-12.136840820312,20.054565429688
0.029,-3.5684814453125,-15.740356445312,18.813354492188
0.0295,1.4764404296875,-18.503051757812,16.811401367188
0.03,4.3992919921875,-19.704223632812,16.651245117188
0.0305,7.1619873046875,-20.424926757812,13.408081054688
0.031,10.164916992188,-20.304809570312,10.525268554688
0.0315,15.369995117188,-19.263793945312,5.8006591796875
0.032,17.091674804688,-17.982543945312,1.6365966796875
0.0325,19.413940429688,-16.300903320312,-2.4073486328125
0.033,20.254760742188,-14.459106445312,-5.0098876953125
0.0335,20.254760742188,-10.255004882812,-7.9327392578125
0.034,20.214721679688,-8.0928955078125,-11.255981445312
0.0345,19.494018554688,-3.5284423828125,-14.779418945312
0.035,17.812377929688,0.5955810546875,-17.622192382812
0.0355,16.290893554688,3.5184326171875,-19.063598632812
0.036,14.369018554688,7.6824951171875,-20.024536132812
0.0365,11.125854492188,9.2840576171875,-19.824340820312
0.037,7.6824951171875,13.127807617188,-19.063598632812
0.0375,1.9569091796875,16.170776367188,-17.902465820312
0.038,-2.5274658203125,18.533081054688,-16.020629882812
0.0385,-5.0098876953125,19.413940429688,-14.619262695312
0.039,-8.0128173828125,19.614135742188,-12.216918945312
0.0395,-10.855590820312,19.574096679688,-9.3341064453125
0.04,-14.539184570312,18.372924804688,-4.6495361328125
0.0405,-17.381958007812,16.771362304688,-0.2452392578125
0.041,-19.063598632812,15.249877929688,2.9178466796875
0.0415,-19.864379882812,13.408081054688,5.5203857421875
0.042,-19.744262695312,10.405151367188,8.3231201171875
0.0425,-19.343872070312,6.4412841796875,12.006713867188
0.043,-18.583129882812,2.5174560546875,15.129760742188
0.0435,-17.141723632812,-1.5665283203125,17.772338867188
0.044,-15.540161132812,-4.1690673828125,18.813354492188
0.0445,-13.418090820312,-6.9317626953125,19.494018554688
0.045,-10.214965820312,-10.014770507812,19.453979492188
0.0455,-5.0499267578125,-13.778442382812,18.252807617188
0.046,-0.6456298828125,-16.621215820312,16.851440429688
0.0465,2.9578857421875,-18.503051757812,15.450073242188
0.047,5.4403076171875,-17.942504882812,14.008666992188
0.0475,8.3631591796875,-19.303833007812,11.245971679688
0.048,11.766479492188,-19.063598632812,7.7625732421875
0.0485,15.049682617188,-17.982543945312,3.5184326171875
0.049,17.772338867188,-16.300903320312,-0.8458251953125
0.0495,18.893432617188,-14.819458007812,-3.3682861328125
0.05,19.494018554688,-12.657348632812,-6.1309814453125
0.0505,19.453979492188,-9.4942626953125,-9.1339111328125
0.051,18.733276367188,-5.2100830078125,-11.536254882812
0.0515,17.852416992188,-1.3663330078125,-15.740356445312
0.052,16.611206054688,2.2371826171875,-18.022583007812
0.0525,14.769409179688,4.7996826171875,-18.943481445312
0.053,12.126831054688,8.9637451171875,-19.143676757812
0.0535,8.3231201171875,11.205932617188,-19.103637695312
0.054,3.5184326171875,14.729370117188,-18.022583007812
0.0545,-1.0460205078125,17.331909179688,-16.220825195312
0.055,-2.5675048828125,18.693237304688,-15.019653320312
0.0555,-6.5313720703125,19.333862304688,-13.177856445312
0.056,-9.5343017578125,20.494995117188,-10.214965820312
0.0565,-13.137817382812,18.493041992188,-6.0509033203125
0.057,-16.300903320312,17.291870117188,-1.8468017578125
0.0575,-18.663208007812,15.650268554688,2.1571044921875
0.058,-19.423950195312,13.968627929688,4.5194091796875
0.0585,-19.744262695312,11.326049804688,7.4822998046875
0.059,-19.624145507812,7.8026123046875,10.965698242188
0.0595,-18.783325195312,3.5184326171875,14.369018554688
0.06,-17.462036132812,-0.5255126953125,17.131713867188
0.0605,-16.180786132812,-3.6085205078125,18.893432617188
0.061,-14.178833007812,-6.2911376953125,19.694213867188
0.0615,-10.935668945312,-9.2940673828125,19.494018554688
0.062,-6.5313720703125,-12.857543945312,18.933471679688
0.0625,-1.7667236328125,-16.260864257812,17.612182617188
0.063,3.8387451171875,-18.543090820312,15.850463867188
0.0635,5.0399169921875,-19.423950195312,14.449096679688
0.064,8.0428466796875,-19.904418945312,12.166870117188
0.0645,11.366088867188,-19.584106445312,8.6834716796875
0.065,14.769409179688,-18.543090820312,4.3992919921875
0.0655,17.652221679688,-17.021606445312,0.0750732421875
0.066,19.614135742188,-14.098754882812,-3.4884033203125
0.0665,19.974487304688,-13.217895507812,-6.0108642578125
0.067,20.134643554688,-10.214965820312,-9.2139892578125
0.0675,19.694213867188,-6.1309814453125,-11.536254882812
0.068,18.733276367188,-1.9268798828125,-16.060668945312
0.0685,17.131713867188,2.0770263671875,-18.463012695312
0.069,15.530151367188,4.8397216796875,-19.624145507812
0.0695,13.087768554688,7.7625732421875,-20.224731445312
0.07,9.1639404296875,11.205932617188,-19.864379882812
0.0705,4.5194091796875,14.609252929688,-18.823364257812
0.071,-0.3253173828125,17.652221679688,-17.261840820312
0.0715,-4.1290283203125,19.534057617188,-15.580200195312
0.072,-6.5313720703125,19.934448242188,-13.778442382812
0.0725,-9.5743408203125,20.174682617188,-11.175903320312
0.073,-13.338012695312,19.494018554688,-6.9317626953125
0.0735,-16.581176757812,18.172729492188,-2.4874267578125
0.074,-19.103637695312,16.451049804688,1.7567138671875
0.0745,-19.223754882812,14.729370117188,4.8397216796875
0.075,-20.705200195312,12.166870117188,7.6424560546875
0.0755,-20.585083007812,8.4832763671875,11.125854492188
0.076,-19.744262695312,4.3992919921875,14.449096679688
0.0765,-18.583129882812,0.0750732421875,17.572143554688
0.077,-16.901489257812,-3.7286376953125,19.694213867188
0.0775,-14.899536132812,-6.2510986328125,20.294799804688
0.078,-12.216918945312,-9.2139892578125,20.695190429688
0.0785,-7.4522705078125,-13.137817382812,19.974487304688
0.079,-2.6475830078125,-16.300903320312,18.533081054688
0.0795,1.8768310546875,-18.783325195312,16.771362304688
0.08,5.2000732421875,-20.384887695312,15.249877929688
0.0805,7.8026123046875,-19.223754882812,12.927612304688
0.081,11.005737304688,-20.384887695312,9.8446044921875
0.0815,14.649291992188,-19.504028320312,5.5203857421875
0.082,17.812377929688,-17.902465820312,0.9158935546875
0.0825,19.974487304688,-16.140747070312,-3.0880126953125
0.083,20.575073242188,-14.178833007812,-5.5704345703125
0.0835,20.815307617188,-11.416137695312,-8.6134033203125
0.084,20.334838867188,-7.0919189453125,-12.537231445312
0.0845,19.333862304688,-3.0880126953125,-15.460083007812
0.085,19.213745117188,1.1160888671875,-18.222778320312
0.0855,16.330932617188,4.5194091796875,-20.064575195312
0.086,13.768432617188,7.1619873046875,-20.224731445312
0.0865,10.845581054688,10.204956054688,-20.464965820312
0.087,5.8807373046875,15.369995117188,-19.544067382812
0.0875,0.9559326171875,17.251831054688,-17.982543945312
0.088,-3.0479736328125,20.494995117188,-16.180786132812
0.0885,-5.8507080078125,20.294799804688,-14.739379882812
0.089,-8.8536376953125,20.454956054688,-12.136840820312
0.0895,-12.377075195312,19.894409179688,-8.2530517578125
0.09,-15.580200195312,18.933471679688,-4.1690673828125
0.0905,-18.623168945312,17.211791992188,0.5555419921875
0.091,-20.424926757812,15.410034179688,4.0789794921875
0.0915,-20.705200195312,13.087768554688,6.6014404296875
0.092,-20.985473632812,10.204956054688,9.7645263671875
0.0925,-20.344848632812,5.4803466796875,13.808471679688
0.093,-19.183715820312,1.3162841796875,16.891479492188
0.0935,-17.622192382812,-2.4473876953125,19.133666992188
0.094,-16.020629882812,-5.6104736328125,20.655151367188
0.0945,-13.137817382812,-8.4132080078125,20.735229492188
0.095,-9.2940673828125,-11.896606445312,20.454956054688
0.0955,-4.5694580078125,-15.420043945312,19.413940429688
0.096,0.7156982421875,-18.543090820312,17.612182617188
0.0965,4.3192138671875,-20.224731445312,15.850463867188
0.097,7.0418701171875,-20.825317382812,13.968627929688
0.0975,10.044799804688,-20.985473632812,11.406127929688
0.098,14.128784179688,-19.984497070312,6.4412841796875
0.0985,17.171752929688,-18.663208007812,2.2772216796875
0.099,19.734252929688,-16.981567382812,-2.0069580078125
0.0995,21.175659179688,-15.179809570312,-5.1700439453125
0.1,21.095581054688,-12.256958007812,-8.0128173828125
0.1005,21.095581054688,-8.7735595703125,-10.255004882812
0.101,20.294799804688,-4.2891845703125,-15.139770507812
0.1015,18.893432617188,0.2752685546875,-18.342895507812
0.102,17.211791992188,4.0389404296875,-19.904418945312
0.1025,15.129760742188,6.6815185546875,-21.105590820312
0.103,12.126831054688,9.7244873046875,-21.225708007812
0.1035,6.9617919921875,13.888549804688,-20.384887695312
0.104,3.8387451171875,16.891479492188,-19.103637695312
0.1045,-2.4473876953125,19.574096679688,-17.181762695312
0.105,-5.6905517578125,20.935424804688,-15.460083007812
0.1055,-8.4132080078125,20.895385742188,-12.977661132812
0.106,-11.616333007812,21.055541992188,-10.094848632812
0.1065,-15.740356445312,19.854370117188,-4.9698486328125
0.107,-18.863403320312,18.052612304688,1.2762451171875
0.1075,-20.785278320312,16.210815429688,3.5184326171875
0.108,-21.746215820312,14.208862304688,6.5213623046875
0.1085,-21.546020507812,11.045776367188,9.5643310546875
0.109,-21.185668945312,6.7215576171875,13.488159179688
0.1095,-20.224731445312,2.5975341796875,16.611206054688
0.11,-18.703247070312,-1.9669189453125,19.614135742188
0.1105,-16.701293945312,-5.2901611328125,21.095581054688
0.111,-14.138793945312,-8.0528564453125,21.415893554688
0.1115,-11.135864257812,-11.255981445312,21.576049804688
0.112,-5.2901611328125,-15.500122070312,20.214721679688
0.1125,-0.4053955078125,-18.463012695312,18.412963867188
0.113,3.7586669921875,-19.223754882812,17.932495117188
0.1135,6.8416748046875,-21.626098632812,14.969604492188
0.114,10.044799804688,-21.345825195312,11.726440429688
0.1145,13.368041992188,-20.985473632812,8.2030029296875
0.115,16.931518554688,-19.784301757812,3.5985107421875
0.1155,20.014526367188,-17.742309570312,-1.5665283203125
0.116,21.335815429688,-15.820434570312,-4.6895751953125
0.1165,21.896362304688,-13.378051757812,-7.7325439453125
0.117,23.057495117188,-10.214965820312,-10.735473632812
0.1175,20.975463867188,-3.8487548828125,-15.019653320312
0.118,19.694213867188,-1.0460205078125,-17.862426757812
0.1185,18.092651367188,3.0780029296875,-20.344848632812
0.119,16.130737304688,6.2410888671875,-21.586059570312
0.1195,12.767456054688,9.2440185546875,-21.345825195312
0.12,9.1639404296875,12.727416992188,-21.305786132812
0.1205,3.6785888671875,16.611206054688,-19.944458007812
0.121,-1.6466064453125,19.494018554688,-17.782348632812
0.1215,-4.9698486328125,20.815307617188,-16.060668945312
0.122,-7.9327392578125,21.616088867188,-14.138793945312
0.1225,-11.055786132812,21.375854492188,-10.895629882812
0.123,-14.939575195312,20.334838867188,-6.1710205078125
0.1235,-18.102661132812,19.013549804688,-1.8468017578125
0.124,-20.785278320312,16.931518554688,2.8778076171875
0.1245,-21.706176757812,14.969604492188,5.8006591796875
0.125,-21.826293945312,11.806518554688,8.7635498046875
0.1255,-21.746215820312,8.6033935546875,12.166870117188
0.126,-20.745239257812,3.5985107421875,16.130737304688
0.1265,-19.143676757812,-0.9659423828125,19.093627929688
0.127,-17.421997070312,-4.3692626953125,20.815307617188
0.1275,-15.500122070312,-7.3721923828125,21.936401367188
0.128,-11.856567382812,-10.495239257812,21.536010742188
0.1285,-7.2120361328125,-14.298950195312,20.895385742188
0.129,-2.2471923828125,-17.702270507812,19.494018554688
0.1295,2.9578857421875,-20.344848632812,17.291870117188
0.13,5.8807373046875,-21.305786132812,15.530151367188
0.1305,10.244995117188,-21.666137695312,13.047729492188
0.131,12.126831054688,-21.465942382812,9.8846435546875
0.1315,16.090698242188,-20.064575195312,4.6795654296875
0.132,19.173706054688,-18.422973632812,0.0350341796875
0.1325,21.175659179688,-16.501098632812,-2.5675048828125
0.133,21.976440429688,-14.258911132812,-6.6915283203125
0.1335,21.736206054688,-10.895629882812,-10.014770507812
0.134,21.375854492188,-6.9317626953125,-13.618286132812
0.1345,20.334838867188,-2.4073486328125,-17.101684570312
0.135,18.533081054688,2.2772216796875,-19.984497070312
0.1355,16.611206054688,5.3602294921875,-21.145629882812
0.136,14.128784179688,8.3631591796875,-21.826293945312
0.1365,10.445190429688,11.646362304688,-21.546020507812
0.137,5.0399169921875,15.650268554688,-20.264770507812
0.1375,0.1151123046875,18.573120117188,-18.823364257812
0.138,-4.3292236328125,20.815307617188,-16.781372070312
0.1385,-7.0518798828125,21.495971679688,-14.779418945312
0.139,-10.415161132812,21.455932617188,-11.656372070312
0.1395,-13.698364257812,21.055541992188,-8.1329345703125
0.14,-17.421997070312,19.574096679688,-3.0880126953125
0.1405,-20.344848632812,17.492065429688,1.9168701171875
0.141,-21.746215820312,15.570190429688,5.1600341796875
0.1415,-22.306762695312,13.087768554688,8.1229248046875
0.142,-21.986450195312,9.4842529296875,11.486206054688
0.1425,-21.145629882812,4.8397216796875,16.651245117188
0.143,-19.944458007812,0.4754638671875,18.493041992188
0.1435,-18.182739257812,-2.5675048828125,21.055541992188
0.144,-15.980590820312,-6.7716064453125,23.057495117188
0.1445,-12.977661132812,-9.8946533203125,22.056518554688
0.145,-7.6925048828125,-13.458129882812,21.736206054688
0.1455,-3.3682861328125,-17.221801757812,19.974487304688
0.146,1.8367919921875,-19.904418945312,17.972534179688
0.1465,5.4002685546875,-21.505981445312,16.170776367188
0.147,8.2830810546875,-21.986450195312,14.048706054688
0.1475,11.646362304688,-21.666137695312,10.525268554688
0.148,15.289916992188,-20.825317382812,6.2410888671875
0.1485,18.693237304688,-19.263793945312,1.3963623046875
0.149,21.215698242188,-17.141723632812,-3.2481689453125
0.1495,22.016479492188,-15.059692382812,-6.1309814453125
0.15,22.416870117188,-12.176879882812,-9.3341064453125
0.1505,21.976440429688,-8.1729736328125,-12.937622070312
0.151,20.855346679688,-3.4884033203125,-16.541137695312
0.1515,19.253784179688,0.9559326171875,-19.383911132812
0.152,17.572143554688,4.7196044921875,-21.425903320312
0.1525,15.049682617188,7.5623779296875,-21.906372070312
0.153,11.606323242188,10.885620117188,-20.505004882812
0.1535,6.9217529296875,14.649291992188,-21.105590820312
0.154,1.5565185546875,18.092651367188,-19.423950195312
0.1545,-3.2882080078125,20.454956054688,-17.181762695312
0.155,-6.2510986328125,21.455932617188,-15.500122070312
0.1555,-9.2940673828125,21.816284179688,-13.017700195312
0.156,-12.697387695312,21.255737304688,-9.2940673828125
0.1565,-16.300903320312,20.054565429688,-4.6495361328125
0.157,-19.423950195312,18.252807617188,0.1151123046875
0.1575,-21.626098632812,16.290893554688,4.3192138671875
0.158,-21.986450195312,13.968627929688,7.0018310546875
0.1585,-22.106567382812,10.805541992188,10.285034179688
0.159,-21.626098632812,6.4813232421875,15.369995117188
0.1595,-20.464965820312,1.9969482421875,17.492065429688
0.16,-18.583129882812,-2.3673095703125,20.014526367188
0.1605,-16.901489257812,-5.6104736328125,21.495971679688
0.161,-14.419067382812,-8.5733642578125,22.056518554688
0.1615,-10.295043945312,-11.936645507812,21.455932617188
0.162,-5.4503173828125,-15.540161132812,20.374877929688
0.1625,1.2762451171875,-18.863403320312,18.613159179688
0.163,4.2791748046875,-20.905395507812,16.611206054688
0.1635,6.9617919921875,-21.465942382812,14.689331054688
0.164,10.204956054688,-21.746215820312,11.966674804688
0.1645,13.928588867188,-21.025512695312,8.9637451171875
0.165,17.251831054688,-19.624145507812,3.1580810546875
0.1655,20.134643554688,-17.742309570312,-1.5665283203125
0.166,21.736206054688,-15.900512695312,-5.0098876953125
0.1665,21.896362304688,-13.217895507812,-7.8126220703125
0.167,21.816284179688,-9.6143798828125,-11.376098632812
0.1675,21.055541992188,-5.2100830078125,-14.979614257812
0.168,19.854370117188,-0.7257080078125,-18.342895507812
0.1685,19.213745117188,3.3983154296875,-20.705200195312
0.169,15.850463867188,6.1610107421875,-21.465942382812
0.1695,13.087768554688,9.4442138671875,-21.826293945312
0.17,8.2830810546875,13.368041992188,-21.105590820312
0.1705,3.5184326171875,16.611206054688,-19.744262695312
0.171,-1.5665283203125,19.494018554688,-17.902465820312
0.1715,-5.2901611328125,21.215698242188,-16.100708007812
0.172,-7.9727783203125,21.375854492188,-13.818481445312
0.1725,-11.215942382812,21.455932617188,-10.895629882812
0.173,-15.139770507812,20.454956054688,-6.1309814453125
0.1735,-18.422973632812,18.853393554688,-1.3663330078125
0.174,-20.785278320312,16.891479492188,2.9178466796875
0.1745,-21.826293945312,14.969604492188,5.8807373046875
0.175,-22.066528320312,12.086791992188,10.244995117188
0.1755,-21.706176757812,7.8026123046875,12.887573242188
0.176,-20.665161132812,3.6385498046875,16.050659179688
0.1765,-19.063598632812,-0.9659423828125,19.173706054688
0.177,-17.341918945312,-4.6495361328125,21.135620117188
0.1775,-14.899536132812,-7.4122314453125,21.415893554688
0.178,-12.016723632812,-10.535278320312,21.696166992188
