wavelength,x,y,z
0.0,-11.561279296875,24.994384765625,-13.923583984375
0.0005,-15.445068359375,24.433837890625,-9.559326171875
0.001,-17.967529296875,24.313720703125,-6.916748046875
0.0015,-20.449951171875,21.470947265625,-1.671630859375
0.002,-23.292724609375,19.388916015625,3.413330078125
0.0025,-24.373779296875,15.905517578125,8.057861328125
0.003,-25.695068359375,12.382080078125,12.982666015625
0.0035,-24.533935546875,8.298095703125,15.945556640625
0.004,-23.532958984375,4.534423828125,18.668212890625
0.0045,-20.650146484375,-0.150146484375,20.469970703125
0.005,-18.728271484375,-5.475341796875,23.953369140625
0.0055,-14.524169921875,-10.480224609375,24.674072265625
0.006,-10.440185546875,-14.804443359375,24.954345703125
0.0065,-7.517333984375,-17.046630859375,24.273681640625
0.007,-1.791748046875,-19.809326171875,21.390869140625
0.0075,2.772705078125,-21.811279296875,18.908447265625
0.008,8.057861328125,-23.853271484375,15.865478515625
0.0085,12.702392578125,-25.014404296875,12.382080078125
0.009,16.225830078125,-24.053466796875,7.937744140625
0.0095,18.548095703125,-23.372802734375,4.974853515625
0.01,20.950439453125,-20.489990234375,-0.310302734375
0.0105,23.953369140625,-18.447998046875,-5.475341796875
0.011,24.273681640625,-14.404052734375,-9.879638671875
0.0115,25.274658203125,-11.080810546875,-14.203857421875
0.012,24.073486328125,-7.637451171875,-16.566162109375
0.0125,22.271728515625,-3.153076171875,-19.288818359375
0.013,19.669189453125,1.411376953125,-21.170654296875
0.0135,17.106689453125,7.056884765625,-24.213623046875
0.014,13.102783203125,11.581298828125,-24.774169921875
0.0145,8.978759765625,15.425048828125,-24.493896484375
0.015,6.176025390625,17.266845703125,-23.572998046875
0.0155,0.490478515625,19.829345703125,-20.489990234375
0.016,-4.194091796875,22.231689453125,-18.367919921875
0.0165,-9.399169921875,23.432861328125,-14.484130859375
0.017,-13.443115234375,24.473876953125,-11.601318359375
0.0175,-16.446044921875,23.272705078125,-7.477294921875
0.018,-18.648193359375,22.071533203125,-3.953857421875
0.0185,-20.850341796875,19.468994140625,0.930908203125
0.019,-23.853271484375,17.146728515625,6.256103515625
0.0195,-23.693115234375,12.862548828125,10.380126953125
0.02,-24.373779296875,9.699462890625,14.343994140625
0.0205,-23.252685546875,6.696533203125,16.265869140625
0.021,-21.010498046875,1.851806640625,18.988525390625
0.0215,-18.888427734375,-2.632568359375,21.190673828125
0.022,-15.725341796875,-8.077880859375,23.552978515625
0.0225,-12.281982421875,-12.161865234375,24.153564453125
0.023,-8.117919921875,-15.445068359375,23.232666015625
0.0235,-4.914794921875,-17.246826171875,21.871337890625
0.024,0.330322265625,-19.689208984375,19.188720703125
0.0245,5.375244140625,-22.491943359375,17.026611328125
0.025,10.059814453125,-22.932373046875,12.822509765625
0.0255,13.703369140625,-24.053466796875,10.300048828125
0.026,16.305908203125,-22.572021484375,6.456298828125
0.0265,18.788330078125,-20.970458984375,2.292236328125
0.027,21.110595703125,-18.648193359375,-2.352294921875
0.0275,23.633056640625,-16.005615234375,-7.637451171875
0.028,23.432861328125,-12.041748046875,-11.401123046875
0.0285,23.633056640625,-8.838623046875,-14.884521484375
0.029,22.351806640625,-5.915771484375,-16.606201171875
0.0295,20.109619140625,-0.790771484375,-19.448974609375
0.03,17.827392578125,4.134033203125,-22.091552734375
0.0305,14.103759765625,9.259033203125,-23.532958984375
0.031,11.260986328125,12.862548828125,-24.293701171875
0.0315,7.016845703125,15.785400390625,-22.932373046875
0.032,3.253173828125,17.747314453125,-21.130615234375
0.0325,-1.631591796875,20.149658203125,-18.768310546875
0.033,-7.197021484375,22.992431640625,-16.205810546875
0.0335,-11.401123046875,22.792236328125,-11.961669921875
0.034,-14.804443359375,23.633056640625,-9.359130859375
0.0345,-16.926513671875,21.951416015625,-5.635498046875
0.035,-19.649169921875,20.109619140625,-0.990966796875
0.0355,-21.891357421875,17.667236328125,3.813720703125
0.036,-23.733154296875,14.384033203125,8.978759765625
0.0365,-23.693115234375,10.860595703125,12.502197265625
0.037,-23.212646484375,7.217041015625,15.705322265625
0.0375,-21.571044921875,4.013916015625,17.306884765625
0.038,-19.408935546875,-1.111083984375,20.189697265625
0.0385,-16.766357421875,-6.396240234375,22.872314453125
0.039,-12.562255859375,-11.040771484375,23.352783203125
0.0395,-10.079833984375,-14.243896484375,23.993408203125
0.04,-5.475341796875,-16.726318359375,21.911376953125
0.0405,-1.111083984375,-18.928466796875,19.789306640625
0.041,3.493408203125,-21.130615234375,17.547119140625
0.0415,9.098876953125,-23.572998046875,14.384033203125
0.042,12.662353515625,-22.972412109375,10.420166015625
0.0425,16.065673828125,-23.252685546875,7.377197265625
0.043,17.787353515625,-21.250732421875,3.613525390625
0.0435,20.750244140625,-19.248779296875,-1.431396484375
0.044,22.632080078125,-16.526123046875,-6.075927734375
0.0445,23.673095703125,-12.842529296875,-10.880615234375
0.045,23.753173828125,-9.959716796875,-13.883544921875
0.0455,22.471923828125,-5.955810546875,-16.686279296875
0.046,20.510009765625,-2.312255859375,-18.367919921875
0.0465,18.508056640625,2.572509765625,-21.170654296875
0.047,15.385009765625,8.258056640625,-23.693115234375
0.0475,11.060791015625,12.181884765625,-23.372802734375
0.048,8.618408203125,15.144775390625,-23.853271484375
0.0485,4.013916015625,17.106689453125,-21.290771484375
0.049,-0.630615234375,19.509033203125,-19.208740234375
0.0495,-5.114990234375,21.470947265625,-16.726318359375
0.05,-10.560302734375,23.352783203125,-13.322998046875
0.0505,-13.563232421875,22.872314453125,-9.839599609375
0.051,-16.566162109375,22.431884765625,-6.356201171875
0.0515,-18.127685546875,20.309814453125,-2.752685546875
0.052,-21.130615234375,18.387939453125,2.292236328125
0.0525,-22.772216796875,15.224853515625,7.056884765625
0.053,-23.092529296875,11.341064453125,11.381103515625
0.0535,-23.412841796875,8.978759765625,14.103759765625
0.054,-21.490966796875,4.734619140625,16.506103515625
0.0545,-19.649169921875,0.810791015625,18.588134765625
0.055,-17.487060546875,-3.873779296875,21.110595703125
0.0555,-14.404052734375,-9.279052734375,23.392822265625
0.056,-10.239990234375,-12.642333984375,22.552001953125
0.0565,-7.437255859375,-15.485107421875,22.592041015625
0.057,-3.032958984375,-17.206787109375,19.909423828125
0.0575,1.611572265625,-20.009521484375,18.187744140625
0.058,6.336181640625,-21.450927734375,15.064697265625
0.0585,11.020751953125,-22.772216796875,11.821533203125
0.059,13.823486328125,-22.572021484375,8.898681640625
0.0595,16.626220703125,-21.410888671875,4.934814453125
0.06,18.508056640625,-19.408935546875,1.131103515625
0.0605,21.190673828125,-17.527099609375,-3.593505859375
0.061,22.672119140625,-14.283935546875,-8.358154296875
0.0615,22.511962890625,-10.440185546875,-12.121826171875
0.062,22.832275390625,-8.318115234375,-14.604248046875
0.0625,20.469970703125,-3.833740234375,-16.806396484375
0.063,18.948486328125,0.450439453125,-19.448974609375
0.0635,16.105712890625,5.215087890625,-21.410888671875
0.064,13.062744140625,10.139892578125,-23.332763671875
0.0645,9.379150390625,13.062744140625,-22.612060546875
0.065,6.015869140625,15.745361328125,-21.931396484375
0.0655,1.731689453125,17.427001953125,-19.408935546875
0.066,-2.992919921875,20.469970703125,-17.767333984375
0.0665,-7.837646484375,21.671142578125,-14.203857421875
0.067,-11.961669921875,22.431884765625,-10.880615234375
0.0675,-14.484130859375,22.351806640625,-8.398193359375
0.068,-17.046630859375,20.469970703125,-3.953857421875
0.0685,-19.248779296875,18.668212890625,0.130126953125
0.069,-21.490966796875,16.305908203125,4.774658203125
0.0695,-22.812255859375,13.102783203125,9.339111328125
0.07,-22.371826171875,9.259033203125,12.782470703125
0.0705,-22.291748046875,6.776611328125,15.184814453125
0.071,-19.729248046875,2.252197265625,17.226806640625
0.0715,-18.327880859375,-2.272216796875,20.349853515625
0.072,-14.964599609375,-7.036865234375,21.751220703125
0.0725,-11.881591796875,-11.481201171875,23.032470703125
0.073,-8.518310546875,-14.123779296875,22.351806640625
0.0735,-4.234130859375,-16.766357421875,20.630126953125
0.074,0.010009765625,-18.447998046875,18.307861328125
0.0745,4.894775390625,-21.290771484375,16.345947265625
0.075,9.459228515625,-22.251708984375,12.782470703125
0.0755,13.302978515625,-22.451904296875,9.259033203125
0.076,15.585205078125,-22.131591796875,6.736572265625
0.0765,18.067626953125,-19.849365234375,1.931884765625
0.077,20.750244140625,-18.007568359375,-2.632568359375
0.0775,22.111572265625,-15.044677734375,-7.076904296875
0.078,23.272705078125,-12.041748046875,-11.281005859375
0.0785,22.471923828125,-8.318115234375,-14.243896484375
0.079,21.671142578125,-5.195068359375,-16.606201171875
0.0795,19.108642578125,-0.630615234375,-18.568115234375
0.08,17.346923828125,4.534423828125,-22.011474609375
0.0805,13.423095703125,9.018798828125,-22.612060546875
0.081,10.219970703125,13.022705078125,-23.412841796875
0.0815,7.177001953125,15.224853515625,-22.572021484375
0.082,2.252197265625,17.867431640625,-20.289794921875
0.0825,-2.112060546875,19.869384765625,-18.007568359375
0.083,-7.237060546875,22.151611328125,-15.244873046875
0.0835,-11.361083984375,22.872314453125,-12.041748046875
0.084,-14.804443359375,22.511962890625,-8.238037109375
0.0845,-16.846435546875,21.751220703125,-5.435302734375
0.085,-19.248779296875,19.268798828125,-0.630615234375
0.0855,-22.051513671875,17.146728515625,4.454345703125
0.086,-22.531982421875,13.423095703125,8.698486328125
0.0865,-23.572998046875,10.620361328125,12.662353515625
0.087,-22.451904296875,7.056884765625,15.104736328125
0.0875,-21.010498046875,3.213134765625,17.587158203125
0.088,-18.568115234375,-1.311279296875,19.589111328125
0.0885,-16.285888671875,-6.676513671875,22.672119140625
0.089,-12.362060546875,-10.760498046875,22.832275390625
0.0895,-8.998779296875,-14.404052734375,23.032470703125
0.09,-5.795654296875,-16.165771484375,21.711181640625
0.0905,-0.630615234375,-18.728271484375,19.108642578125
0.091,3.853759765625,-20.890380859375,16.946533203125
0.0915,8.938720703125,-22.371826171875,13.423095703125
0.092,12.502197265625,-23.092529296875,10.740478515625
0.0925,15.625244140625,-22.131591796875,6.696533203125
0.093,17.587158203125,-20.890380859375,3.493408203125
0.0935,19.989501953125,-18.568115234375,-1.311279296875
0.094,22.672119140625,-16.285888671875,-6.356201171875
0.0945,22.471923828125,-12.281982421875,-10.239990234375
0.095,23.312744140625,-9.639404296875,-13.763427734375
0.0955,21.911376953125,-6.276123046875,-15.805419921875
0.096,20.029541015625,-1.831787109375,-18.367919921875
0.0965,17.787353515625,2.532470703125,-20.489990234375
0.097,14.784423828125,7.977783203125,-22.932373046875
0.0975,11.381103515625,11.501220703125,-23.092529296875
0.098,7.737548828125,14.784423828125,-22.652099609375
0.0985,4.494384765625,16.466064453125,-21.090576171875
0.099,-0.590576171875,18.948486328125,-18.648193359375
0.0995,-5.275146484375,21.350830078125,-16.446044921875
0.1,-9.959716796875,22.071533203125,-12.522216796875
0.1005,-13.202880859375,22.832275390625,-10.159912109375
0.101,-15.805419921875,21.470947265625,-6.196044921875
0.1015,-17.967529296875,19.989501953125,-2.552490234375
0.102,-20.209716796875,17.827392578125,1.931884765625
0.1025,-22.572021484375,15.064697265625,7.056884765625
0.103,-22.251708984375,11.260986328125,10.620361328125
0.1035,-22.692138671875,8.378173828125,14.023681640625
0.104,-21.210693359375,5.255126953125,15.665283203125
0.1045,-19.248779296875,0.570556640625,18.427978515625
0.105,-17.086669921875,-3.993896484375,20.790283203125
0.1055,-13.683349609375,-9.118896484375,22.431884765625
0.106,-10.760498046875,-12.241943359375,22.752197265625
0.1065,-6.756591796875,-15.164794921875,21.631103515625
0.107,-3.072998046875,-16.966552734375,19.829345703125
0.1075,1.571533203125,-19.408935546875,17.747314453125
0.108,6.736572265625,-21.851318359375,15.064697265625
0.1085,10.740478515625,-21.931396484375,11.220947265625
0.109,14.063720703125,-22.692138671875,8.778564453125
0.1095,16.305908203125,-21.010498046875,4.854736328125
0.11,18.908447265625,-19.288818359375,0.530517578125
0.1105,20.870361328125,-17.086669921875,-3.753662109375
0.111,22.792236328125,-13.963623046875,-8.838623046875
0.1115,22.552001953125,-10.560302734375,-12.081787109375
0.112,22.431884765625,-7.317138671875,-15.244873046875
0.1125,20.550048828125,-3.873779296875,-16.886474609375
0.113,18.748291015625,0.970947265625,-19.849365234375
0.1135,15.985595703125,6.015869140625,-22.171630859375
0.114,12.101806640625,10.700439453125,-22.932373046875
0.1145,9.619384765625,13.783447265625,-23.452880859375
0.115,5.054931640625,16.385986328125,-21.611083984375
0.1155,0.850830078125,18.468017578125,-19.489013671875
0.116,-3.593505859375,20.750244140625,-17.447021484375
0.1165,-9.118896484375,22.912353515625,-14.243896484375
0.117,-12.762451171875,22.471923828125,-10.239990234375
0.1175,-15.885498046875,22.872314453125,-7.517333984375
0.118,-17.967529296875,20.630126953125,-3.233154296875
0.1185,-20.850341796875,18.828369140625,1.571533203125
0.119,-22.411865234375,15.985595703125,5.975830078125
0.1195,-23.693115234375,12.422119140625,10.940673828125
0.12,-23.452880859375,9.218994140625,13.903564453125
0.1205,-22.491943359375,5.215087890625,16.946533203125
0.121,-20.129638671875,1.211181640625,18.628173828125
0.1215,-18.287841796875,-3.753662109375,21.671142578125
0.122,-14.924560546875,-8.918701171875,23.552978515625
0.1225,-10.640380859375,-13.122802734375,23.472900390625
0.123,-8.077880859375,-15.845458984375,23.633056640625
0.1235,-2.672607421875,-18.447998046875,20.830322265625
0.124,1.891845703125,-20.610107421875,18.628173828125
0.1245,6.456298828125,-22.451904296875,15.905517578125
0.125,11.621337890625,-24.133544921875,12.622314453125
0.1255,14.904541015625,-23.252685546875,8.458251953125
0.126,17.947509765625,-22.932373046875,5.135009765625
0.1265,19.909423828125,-20.209716796875,0.490478515625
0.127,22.992431640625,-18.287841796875,-4.594482421875
0.1275,23.673095703125,-14.764404296875,-8.918701171875
0.128,24.433837890625,-11.040771484375,-13.443115234375
0.1285,23.913330078125,-8.157958984375,-15.965576171875
0.129,22.111572265625,-3.393310546875,-18.888427734375
0.1295,19.549072265625,0.970947265625,-20.690185546875
0.13,17.146728515625,6.216064453125,-23.412841796875
0.1305,13.543212890625,11.140869140625,-24.734130859375
0.131,9.098876953125,14.864501953125,-24.053466796875
0.1315,6.336181640625,17.306884765625,-23.733154296875
0.132,0.770751953125,19.669189453125,-20.650146484375
0.1325,-3.993896484375,22.191650390625,-18.528076171875
0.133,-8.798583984375,23.272705078125,-14.884521484375
0.1335,-13.403076171875,24.593994140625,-11.681396484375
0.134,-16.365966796875,23.512939453125,-7.757568359375
0.1345,-19.168701171875,22.431884765625,-3.873779296875
0.135,-21.010498046875,19.709228515625,0.810791015625
0.1355,-23.973388671875,17.427001953125,6.095947265625
0.136,-24.173583984375,13.463134765625,10.300048828125
0.1365,-24.493896484375,9.619384765625,14.544189453125
0.137,-23.853271484375,6.856689453125,16.706298828125
0.1375,-21.490966796875,1.651611328125,19.468994140625
0.138,-19.168701171875,-2.832763671875,21.711181640625
0.1385,-16.125732421875,-7.997802734375,23.753173828125
0.139,-12.682373046875,-12.482177734375,24.874267578125
0.1395,-8.197998046875,-15.845458984375,23.753173828125
0.14,-4.874755859375,-18.127685546875,22.752197265625
0.1405,0.610595703125,-20.329833984375,19.589111328125
0.141,5.575439453125,-23.132568359375,17.587158203125
0.1415,10.260009765625,-23.532958984375,13.302978515625
0.142,14.384033203125,-24.533935546875,10.300048828125
0.1425,17.106689453125,-23.372802734375,6.456298828125
0.143,19.869384765625,-21.651123046875,2.052001953125
0.1435,21.911376953125,-19.048583984375,-2.792724609375
0.144,24.473876953125,-16.486083984375,-7.957763671875
0.1445,24.433837890625,-12.522216796875,-12.001708984375
0.145,24.393798828125,-8.718505859375,-15.805419921875
0.1455,23.432861328125,-5.875732421875,-17.767333984375
0.146,20.750244140625,-0.430419921875,-20.449951171875
0.1465,18.427978515625,4.494384765625,-23.092529296875
0.147,14.544189453125,9.739501953125,-24.373779296875
0.1475,11.501220703125,13.703369140625,-25.294677734375
0.148,7.016845703125,16.786376953125,-23.853271484375
0.1485,3.012939453125,19.028564453125,-22.211669921875
0.149,-2.192138671875,21.110595703125,-19.248779296875
0.1495,-7.557373046875,24.073486328125,-16.926513671875
0.15,-12.041748046875,23.873291015625,-12.322021484375
0.1505,-15.885498046875,24.553955078125,-9.279052734375
0.151,-18.167724609375,23.072509765625,-5.515380859375
0.1515,-20.850341796875,20.990478515625,-0.670654296875
0.152,-23.052490234375,18.267822265625,4.294189453125
0.1525,-24.934326171875,14.984619140625,9.539306640625
0.153,-24.854248046875,11.220947265625,13.302978515625
0.1535,-24.293701171875,7.177001953125,16.746337890625
0.154,-22.812255859375,3.973876953125,18.548095703125
0.1545,-20.089599609375,-1.431396484375,21.270751953125
0.155,-17.647216796875,-6.756591796875,24.193603515625
0.1555,-13.202880859375,-11.641357421875,24.553955078125
0.156,-10.280029296875,-15.204833984375,25.154541015625
0.1565,-5.675537109375,-17.927490234375,23.272705078125
0.157,-0.990966796875,-20.289794921875,21.110595703125
0.1575,3.853759765625,-22.251708984375,18.307861328125
0.158,9.659423828125,-24.934326171875,15.264892578125
0.1585,13.543212890625,-24.333740234375,10.900634765625
0.159,17.306884765625,-24.573974609375,7.417236328125
0.1595,19.308837890625,-22.692138671875,3.573486328125
0.16,22.191650390625,-20.369873046875,-1.711669921875
0.1605,24.233642578125,-17.607177734375,-6.596435546875
0.161,25.314697265625,-13.723388671875,-11.681396484375
0.1615,25.314697265625,-10.440185546875,-15.084716796875
0.162,24.153564453125,-6.075927734375,-18.207763671875
0.1625,22.111572265625,-2.112060546875,-20.169677734375
0.163,19.589111328125,3.093017578125,-22.772216796875
0.1635,16.506103515625,8.938720703125,-25.534912109375
0.164,11.701416015625,13.343017578125,-25.134521484375
0.1645,8.858642578125,16.666259765625,-25.655029296875
0.165,3.853759765625,19.148681640625,-23.132568359375
0.1655,-1.231201171875,21.711181640625,-20.770263671875
0.166,-5.955810546875,23.432861328125,-17.887451171875
0.1665,-11.841552734375,25.635009765625,-14.243896484375
0.167,-15.244873046875,24.794189453125,-10.079833984375
0.1675,-18.808349609375,24.393798828125,-6.196044921875
0.168,-20.690185546875,22.071533203125,-2.031982421875
0.1685,-23.572998046875,19.749267578125,3.333251953125
0.169,-25.174560546875,16.385986328125,8.298095703125
0.1695,-25.655029296875,12.021728515625,13.222900390625
0.17,-25.614990234375,9.018798828125,16.305908203125
0.1705,-23.733154296875,4.134033203125,19.348876953125
0.171,-21.410888671875,-0.270263671875,21.390869140625
0.1715,-18.888427734375,-5.195068359375,23.753173828125
0.172,-15.445068359375,-11.040771484375,26.195556640625
0.1725,-10.400146484375,-14.924560546875,24.994384765625
0.173,-7.357177734375,-18.047607421875,25.114501953125
0.1735,-1.951904296875,-20.209716796875,21.951416015625
0.174,3.133056640625,-22.892333984375,19.709228515625
0.1745,7.977783203125,-24.213623046875,16.305908203125
0.175,13.423095703125,-25.855224609375,12.502197265625
0.1755,16.586181640625,-25.014404296875,8.618408203125
0.176,19.989501953125,-23.893310546875,4.134033203125
0.1765,21.791259765625,-21.330810546875,-0.350341796875
0.177,24.634033203125,-19.048583984375,-5.635498046875
0.1775,25.795166015625,-15.405029296875,-10.520263671875
0.178,25.594970703125,-10.760498046875,-14.924560546875
0.1785,25.594970703125,-8.077880859375,-17.647216796875
0.179,22.992431640625,-2.712646484375,-20.409912109375
0.1795,20.670166015625,1.891845703125,-22.692138671875
0.18,17.627197265625,7.056884765625,-24.774169921875
0.1805,13.983642578125,12.542236328125,-26.656005859375
