wavelength,x,y,z
0.0,-2.322265625,4.2041015625,-2.001953125
0.0005,-2.6826171875,3.9638671875,-1.44140625
0.001,-3.1630859375,3.763671875,-0.80078125
0.0015,-3.5234375,3.3232421875,-0.080078125
0.002,-3.84375,2.8828125,0.720703125
0.0025,-4.0439453125,2.2021484375,1.6015625
0.003,-4.2041015625,1.5615234375,2.40234375
0.0035,-3.763671875,0.80078125,2.72265625
0.004,-3.7236328125,0.16015625,3.36328125
0.0045,-3.203125,-0.640625,3.68359375
0.005,-2.8427734375,-1.361328125,4.00390625
0.0055,-2.0419921875,-2.2822265625,4.1640625
0.006,-1.3212890625,-2.7626953125,4.00390625
0.0065,-0.4404296875,-3.283203125,3.6435546875
0.007,0.2802734375,-3.763671875,3.36328125
0.0075,1.12109375,-4.0439453125,2.8427734375
0.008,1.921875,-4.2841796875,2.3623046875
0.0085,2.72265625,-4.4443359375,1.7216796875
0.009,2.962890625,-4.00390625,1.0009765625
0.0095,3.5234375,-3.923828125,0.400390625
0.01,3.763671875,-3.2431640625,-0.400390625
0.0105,4.1240234375,-2.802734375,-1.1611328125
0.011,4.2041015625,-2.001953125,-2.08203125
0.0115,4.2041015625,-1.361328125,-2.72265625
0.012,3.8037109375,-0.560546875,-3.0830078125
0.0125,3.7236328125,0.0,-3.6435546875
0.013,3.123046875,0.9208984375,-3.923828125
0.0135,2.72265625,1.5615234375,-4.244140625
0.014,1.9619140625,2.5224609375,-4.404296875
0.0145,1.12109375,2.8427734375,-4.00390625
0.015,0.3203125,3.36328125,-3.763671875
0.0155,-0.4404296875,3.763671875,-3.3232421875
0.016,-1.2412109375,3.9638671875,-2.8427734375
0.0165,-1.9619140625,4.083984375,-2.2822265625
0.017,-2.642578125,4.1240234375,-1.6416015625
0.0175,-2.9228515625,3.6435546875,-0.9609375
0.018,-3.4833984375,3.68359375,-0.3603515625
0.0185,-3.68359375,2.8828125,0.560546875
0.019,-4.00390625,2.5224609375,1.28125
0.0195,-4.1240234375,1.7216796875,2.2021484375
0.02,-3.923828125,1.12109375,2.6025390625
0.0205,-3.603515625,0.3203125,3.04296875
0.021,-3.4033203125,-0.3203125,3.5634765625
0.0215,-2.8427734375,-1.1611328125,3.84375
0.022,-2.322265625,-1.8818359375,4.0439453125
0.0225,-1.6015625,-2.642578125,4.1240234375
0.023,-0.720703125,-2.962890625,3.603515625
0.0235,-0.0400390625,-3.5634765625,3.5634765625
0.024,0.8408203125,-3.84375,2.9228515625
0.0245,1.521484375,-4.2041015625,2.5625
0.025,2.2421875,-4.2841796875,1.921875
0.0255,2.7626953125,-4.1640625,1.361328125
0.026,3.04296875,-3.7236328125,0.6806640625
0.0265,3.5234375,-3.5634765625,0.1201171875
0.027,3.763671875,-2.8427734375,-0.80078125
0.0275,4.0439453125,-2.4423828125,-1.4814453125
0.028,4.1240234375,-1.6416015625,-2.3623046875
0.0285,3.84375,-1.0009765625,-2.6826171875
0.029,3.68359375,-0.3603515625,-3.2431640625
0.0295,3.3232421875,0.3603515625,-3.603515625
0.03,2.8828125,1.0810546875,-3.923828125
0.0305,2.322265625,1.8017578125,-4.083984375
0.031,1.7216796875,2.40234375,-4.083984375
0.0315,0.80078125,2.7626953125,-3.5634765625
0.032,0.16015625,3.36328125,-3.5634765625
0.0325,-0.6806640625,3.5234375,-2.9228515625
0.033,-1.28125,3.84375,-2.6826171875
0.0335,-2.08203125,3.8837890625,-2.0419921875
0.034,-2.40234375,3.763671875,-1.4814453125
0.0345,-2.8427734375,3.5234375,-0.8408203125
0.035,-3.283203125,3.2431640625,-0.16015625
0.0355,-3.5634765625,2.6826171875,0.640625
0.036,-3.8037109375,2.2421875,1.361328125
0.0365,-3.8837890625,1.5615234375,2.0419921875
0.037,-3.5234375,0.9208984375,2.40234375
0.0375,-3.5634765625,0.3203125,3.04296875
0.038,-3.0830078125,-0.5205078125,3.36328125
0.0385,-2.72265625,-1.1611328125,3.7236328125
0.039,-2.0419921875,-1.921875,3.84375
0.0395,-1.44140625,-2.40234375,3.68359375
0.04,-0.6005859375,-2.8427734375,3.36328125
0.0405,0.0400390625,-3.4833984375,3.2431640625
0.041,0.880859375,-3.68359375,2.6826171875
0.0415,1.44140625,-4.00390625,2.40234375
0.042,2.1220703125,-4.0439453125,1.841796875
0.0425,2.40234375,-3.7236328125,1.28125
0.043,2.962890625,-3.6435546875,0.6806640625
0.0435,3.283203125,-3.123046875,-0.080078125
0.044,3.6435546875,-2.72265625,-0.80078125
0.0445,3.8037109375,-2.1220703125,-1.5615234375
0.045,3.84375,-1.6416015625,-2.08203125
0.0455,3.4833984375,-0.9208984375,-2.482421875
0.046,3.5634765625,-0.3603515625,-3.0830078125
0.0465,3.04296875,0.48046875,-3.4033203125
0.047,2.7626953125,1.0810546875,-3.8037109375
0.0475,2.1220703125,1.76171875,-3.8837890625
0.048,1.44140625,2.162109375,-3.603515625
0.0485,0.720703125,2.6826171875,-3.4833984375
0.049,0.0,3.123046875,-3.203125
0.0495,-0.640625,3.4033203125,-2.8828125
0.05,-1.28125,3.68359375,-2.4423828125
0.0505,-1.8017578125,3.7236328125,-2.001953125
0.051,-2.162109375,3.443359375,-1.4013671875
0.0515,-2.802734375,3.5234375,-0.8408203125
0.052,-3.04296875,2.8427734375,0.0
0.0525,-3.4833984375,2.6025390625,0.640625
0.053,-3.603515625,1.9619140625,1.4013671875
0.0535,-3.5634765625,1.5615234375,1.841796875
0.054,-3.36328125,0.80078125,2.40234375
0.0545,-3.283203125,0.16015625,2.9228515625
0.055,-2.8828125,-0.640625,3.283203125
0.0555,-2.482421875,-1.28125,3.5634765625
0.056,-1.8818359375,-1.9619140625,3.6435546875
0.0565,-1.12109375,-2.40234375,3.3232421875
0.057,-0.48046875,-3.0830078125,3.4033203125
0.0575,0.3603515625,-3.4033203125,2.8427734375
0.058,1.0009765625,-3.763671875,2.6826171875
0.0585,1.681640625,-3.8837890625,2.162109375
0.059,2.08203125,-3.84375,1.7216796875
0.0595,2.5224609375,-3.5634765625,1.0009765625
0.06,3.123046875,-3.4833984375,0.400390625
0.0605,3.36328125,-2.7626953125,-0.5205078125
0.061,3.7236328125,-2.482421875,-1.1611328125
0.0615,3.8037109375,-1.8017578125,-1.8818359375
0.062,3.5234375,-1.201171875,-2.2822265625
0.0625,3.5234375,-0.560546875,-2.8828125
0.063,3.1630859375,0.2001953125,-3.283203125
0.0635,2.8427734375,0.9208984375,-3.6435546875
0.064,2.2822265625,1.5615234375,-3.8037109375
0.0645,1.681640625,2.0419921875,-3.7236328125
0.065,0.8408203125,2.482421875,-3.36328125
0.0655,0.240234375,3.0830078125,-3.4033203125
0.066,-0.640625,3.3232421875,-2.72265625
0.0665,-1.1611328125,3.6435546875,-2.5625
0.067,-1.8017578125,3.6435546875,-1.9619140625
0.0675,-2.1220703125,3.4833984375,-1.4814453125
0.068,-2.6025390625,3.3232421875,-0.8408203125
0.0685,-3.04296875,3.0029296875,-0.1201171875
0.069,-3.283203125,2.482421875,0.6005859375
0.0695,-3.5634765625,2.08203125,1.2412109375
0.07,-3.5634765625,1.5615234375,1.841796875
0.0705,-3.2431640625,0.880859375,2.2021484375
0.071,-3.36328125,0.3203125,2.8427734375
0.0715,-2.8427734375,-0.5205078125,3.123046875
0.072,-2.5625,-1.0810546875,3.4833984375
0.0725,-1.921875,-1.76171875,3.5234375
0.073,-1.3212890625,-2.2021484375,3.4033203125
0.0735,-0.6005859375,-2.7626953125,3.123046875
0.074,0.080078125,-3.2431640625,3.0830078125
0.0745,0.880859375,-3.5234375,2.5625
0.075,1.4013671875,-3.763671875,2.3623046875
0.0755,1.921875,-3.8037109375,1.841796875
0.076,2.2421875,-3.5234375,1.28125
0.0765,2.8427734375,-3.5234375,0.6806640625
0.077,3.1630859375,-2.9228515625,-0.16015625
0.0775,3.5234375,-2.642578125,-0.80078125
0.078,3.6435546875,-2.0419921875,-1.4814453125
0.0785,3.6435546875,-1.6015625,-1.9619140625
0.079,3.443359375,-0.880859375,-2.4423828125
0.0795,3.443359375,-0.2802734375,-3.0830078125
0.08,2.9228515625,0.560546875,-3.36328125
0.0805,2.642578125,1.0810546875,-3.7236328125
0.081,1.9619140625,1.76171875,-3.7236328125
0.0815,1.2412109375,2.162109375,-3.4833984375
0.082,0.6005859375,2.802734375,-3.36328125
0.0825,-0.16015625,3.1630859375,-3.04296875
0.083,-0.8408203125,3.4833984375,-2.6826171875
0.0835,-1.361328125,3.603515625,-2.2822265625
0.084,-1.841796875,3.603515625,-1.8818359375
0.0845,-2.2421875,3.3232421875,-1.2412109375
0.085,-2.8828125,3.3232421875,-0.6005859375
0.0855,-3.0830078125,2.6025390625,0.2802734375
0.086,-3.4833984375,2.40234375,0.880859375
0.0865,-3.5234375,1.76171875,1.5615234375
0.087,-3.36328125,1.28125,1.921875
0.0875,-3.203125,0.560546875,2.5224609375
0.088,-3.0830078125,-0.080078125,3.0029296875
0.0885,-2.6025390625,-0.9208984375,3.283203125
0.089,-2.2021484375,-1.4814453125,3.4833984375
0.0895,-1.5615234375,-2.08203125,3.443359375
0.09,-0.80078125,-2.4423828125,3.1630859375
0.0905,-0.16015625,-3.0830078125,3.203125
0.091,0.640625,-3.36328125,2.642578125
0.0915,1.201171875,-3.7236328125,2.4423828125
0.092,1.7216796875,-3.7236328125,1.921875
0.0925,2.08203125,-3.603515625,1.521484375
0.093,2.5224609375,-3.36328125,0.8408203125
0.0935,3.04296875,-3.1630859375,0.16015625
0.094,3.283203125,-2.5625,-0.640625
0.0945,3.5634765625,-2.2822265625,-1.2412109375
0.095,3.5634765625,-1.681640625,-1.8017578125
0.0955,3.36328125,-1.12109375,-2.2021484375
0.096,3.36328125,-0.48046875,-2.8427734375
0.0965,3.0029296875,0.240234375,-3.203125
0.097,2.72265625,0.880859375,-3.5634765625
0.0975,2.1220703125,1.4013671875,-3.5634765625
0.098,1.5615234375,1.921875,-3.5634765625
0.0985,0.80078125,2.40234375,-3.203125
0.099,0.240234375,3.0029296875,-3.203125
0.0995,-0.560546875,3.203125,-2.6826171875
0.1,-1.041015625,3.5234375,-2.5625
0.1005,-1.6015625,3.4833984375,-2.001953125
0.101,-1.9619140625,3.36328125,-1.5615234375
0.1015,-2.5224609375,3.2431640625,-0.9208984375
0.102,-2.8828125,2.8427734375,-0.1201171875
0.1025,-3.203125,2.5224609375,0.560546875
0.103,-3.36328125,2.08203125,1.12109375
0.1035,-3.4033203125,1.6015625,1.6015625
0.104,-3.203125,0.9208984375,2.08203125
0.1045,-3.283203125,0.2802734375,2.72265625
0.105,-2.802734375,-0.5205078125,3.04296875
0.1055,-2.5625,-1.041015625,3.36328125
0.106,-1.8818359375,-1.6015625,3.3232421875
0.1065,-1.28125,-2.08203125,3.2431640625
0.107,-0.5205078125,-2.6826171875,3.123046875
0.1075,0.1201171875,-3.1630859375,2.9228515625
0.108,0.80078125,-3.4833984375,2.5625
0.1085,1.28125,-3.6435546875,2.322265625
0.109,1.76171875,-3.68359375,1.8818359375
0.1095,2.162109375,-3.4033203125,1.28125
0.11,2.802734375,-3.4033203125,0.6005859375
0.1105,3.04296875,-2.7626953125,-0.240234375
0.111,3.443359375,-2.5625,-0.80078125
0.1115,3.4833984375,-1.9619140625,-1.44140625
0.112,3.4833984375,-1.521484375,-1.8818359375
0.1125,3.3232421875,-0.80078125,-2.4423828125
0.113,3.2431640625,-0.2001953125,-3.0029296875
0.1135,2.802734375,0.560546875,-3.36328125
0.114,2.482421875,1.1611328125,-3.5634765625
0.1145,1.841796875,1.7216796875,-3.5634765625
0.115,1.12109375,2.2021484375,-3.283203125
0.1155,0.48046875,2.8427734375,-3.3232421875
0.116,-0.2802734375,3.0830078125,-2.8828125
0.1165,-0.880859375,3.443359375,-2.642578125
0.117,-1.361328125,3.4833984375,-2.2021484375
0.1175,-1.841796875,3.5234375,-1.8017578125
0.118,-2.2822265625,3.203125,-1.0810546875
0.1185,-2.8427734375,3.123046875,-0.4404296875
0.119,-3.0830078125,2.482421875,0.4404296875
0.1195,-3.443359375,2.2421875,0.9609375
0.12,-3.4033203125,1.6015625,1.5615234375
0.1205,-3.283203125,1.0810546875,1.9619140625
0.121,-3.203125,0.3603515625,2.6025390625
0.1215,-2.8828125,-0.3603515625,3.0029296875
0.122,-2.5224609375,-1.0009765625,3.4033203125
0.1225,-1.9619140625,-1.5615234375,3.36328125
0.123,-1.3212890625,-2.162109375,3.36328125
0.1235,-0.6005859375,-2.6025390625,3.0830078125
0.124,0.0,-3.203125,3.0830078125
0.1245,0.9208984375,-3.4833984375,2.5224609375
0.125,1.4013671875,-3.7236328125,2.2822265625
0.1255,1.841796875,-3.603515625,1.76171875
0.126,2.2421875,-3.5634765625,1.28125
0.1265,2.7626953125,-3.283203125,0.560546875
0.127,3.1630859375,-2.9228515625,-0.16015625
0.1275,3.443359375,-2.40234375,-0.9609375
0.128,3.5634765625,-1.9619140625,-1.4814453125
0.1285,3.5234375,-1.44140625,-2.08203125
0.129,3.3232421875,-0.80078125,-2.482421875
0.1295,3.283203125,-0.16015625,-3.0830078125
0.13,2.802734375,0.6806640625,-3.36328125
0.1305,2.5224609375,1.28125,-3.7236328125
0.131,1.76171875,1.8017578125,-3.5634765625
0.1315,1.1611328125,2.2822265625,-3.4833984375
0.132,0.400390625,2.7626953125,-3.203125
0.1325,-0.2001953125,3.203125,-3.04296875
0.133,-1.041015625,3.443359375,-2.482421875
0.1335,-1.44140625,3.5634765625,-2.2021484375
0.134,-1.9619140625,3.5234375,-1.6416015625
0.1345,-2.322265625,3.283203125,-1.12109375
0.135,-2.8828125,3.123046875,-0.400390625
0.1355,-3.1630859375,2.5224609375,0.4404296875
0.136,-3.4833984375,2.2021484375,1.0810546875
0.1365,-3.443359375,1.6015625,1.5615234375
0.137,-3.4033203125,1.12109375,2.08203125
0.1375,-3.1630859375,0.3603515625,2.5625
0.138,-3.0830078125,-0.240234375,3.123046875
0.1385,-2.5224609375,-1.0810546875,3.4033203125
0.139,-2.08203125,-1.6015625,3.5634765625
0.1395,-1.3212890625,-2.2021484375,3.36328125
0.14,-0.640625,-2.6826171875,3.2431640625
0.1405,0.0400390625,-3.203125,3.04296875
0.141,0.80078125,-3.5234375,2.642578125
0.1415,1.521484375,-3.8037109375,2.2421875
0.142,1.921875,-3.7236328125,1.841796875
0.1425,2.40234375,-3.7236328125,1.3212890625
0.143,2.72265625,-3.283203125,0.6005859375
0.1435,3.283203125,-3.1630859375,-0.0400390625
0.144,3.4833984375,-2.4423828125,-0.9609375
0.1445,3.7236328125,-2.1220703125,-1.5615234375
0.145,3.5634765625,-1.44140625,-2.08203125
0.1455,3.5234375,-0.9609375,-2.5625
0.146,3.2431640625,-0.1201171875,-3.04296875
0.1465,3.0029296875,0.5205078125,-3.443359375
0.147,2.482421875,1.3212890625,-3.7236328125
0.1475,1.921875,1.76171875,-3.6435546875
0.148,1.2412109375,2.3623046875,-3.5634765625
0.1485,0.48046875,2.72265625,-3.2431640625
0.149,-0.16015625,3.2431640625,-3.123046875
0.1495,-1.0009765625,3.443359375,-2.5625
0.15,-1.5615234375,3.68359375,-2.2421875
0.1505,-1.921875,3.4833984375,-1.681640625
0.151,-2.40234375,3.4833984375,-1.2412109375
0.1515,-2.7626953125,3.0830078125,-0.48046875
0.152,-3.203125,2.8427734375,0.2001953125
0.1525,-3.443359375,2.162109375,1.0810546875
0.153,-3.5634765625,1.76171875,1.521484375
0.1535,-3.4033203125,1.12109375,2.0419921875
0.154,-3.283203125,0.560546875,2.5224609375
0.1545,-3.0830078125,-0.16015625,3.04296875
0.155,-2.6025390625,-0.9208984375,3.3232421875
0.1555,-2.2021484375,-1.5615234375,3.6435546875
0.156,-1.521484375,-2.001953125,3.4033203125
0.1565,-0.9208984375,-2.6025390625,3.4033203125
0.157,-0.080078125,-3.04296875,3.04296875
0.1575,0.560546875,-3.5234375,2.8828125
0.158,1.4013671875,-3.7236328125,2.2822265625
0.1585,1.841796875,-3.84375,2.001953125
0.159,2.2822265625,-3.6435546875,1.4013671875
0.1595,2.6826171875,-3.5234375,0.880859375
0.16,3.1630859375,-3.1630859375,0.080078125
0.1605,3.5234375,-2.72265625,-0.6806640625
0.161,3.7236328125,-2.2021484375,-1.4814453125
0.1615,3.6435546875,-1.681640625,-1.9619140625
0.162,3.6435546875,-1.0009765625,-2.5224609375
0.1625,3.3232421875,-0.3203125,-2.9228515625
0.163,3.1630859375,0.3203125,-3.443359375
0.1635,2.6025390625,1.201171875,-3.7236328125
0.164,2.162109375,1.76171875,-3.8837890625
0.1645,1.3212890625,2.2421875,-3.5634765625
0.165,0.6806640625,2.7626953125,-3.5234375
0.1655,-0.0400390625,3.1630859375,-3.123046875
0.166,-0.720703125,3.5234375,-2.8427734375
0.1665,-1.5615234375,3.7236328125,-2.2421875
0.167,-1.9619140625,3.68359375,-1.8017578125
0.1675,-2.4423828125,3.5634765625,-1.2412109375
0.168,-2.8427734375,3.2431640625,-0.6005859375
0.1685,-3.283203125,2.9228515625,0.1201171875
0.169,-3.5634765625,2.2822265625,1.0009765625
0.1695,-3.763671875,1.8017578125,1.6416015625
0.17,-3.4833984375,1.201171875,2.08203125
0.1705,-3.5234375,0.640625,2.642578125
0.171,-3.123046875,-0.16015625,3.123046875
0.1715,-2.8828125,-0.80078125,3.5234375
0.172,-2.2421875,-1.681640625,3.763671875
0.1725,-1.6416015625,-2.2021484375,3.68359375
0.173,-0.80078125,-2.72265625,3.4833984375
0.1735,-0.080078125,-3.2431640625,3.2431640625
0.174,0.640625,-3.603515625,2.8828125
0.1745,1.44140625,-3.8837890625,2.40234375
0.175,2.2021484375,-4.1240234375,1.921875
0.1755,2.5224609375,-3.8037109375,1.3212890625
0.176,3.04296875,-3.8037109375,0.7607421875
0.1765,3.36328125,-3.283203125,-0.0400390625
0.177,3.763671875,-2.9228515625,-0.80078125
0.1775,3.9638671875,-2.162109375,-1.8017578125
0.178,4.00390625,-1.5615234375,-2.3623046875
0.1785,3.68359375,-0.7607421875,-2.802734375
0.179,3.6435546875,-0.2001953125,-3.3232421875
0.1795,3.123046875,0.6005859375,-3.68359375
0.18,2.72265625,1.3212890625,-4.00390625
0.1805,2.0419921875,2.2021484375,-4.244140625
0.181,1.2412109375,2.6025390625,-3.84375
0.1815,0.48046875,3.1630859375,-3.68359375
0.182,-0.3203125,3.5234375,-3.2431640625
0.1825,-1.0810546875,3.84375,-2.8427734375
0.183,-1.8818359375,3.9638671875,-2.2021484375
0.1835,-2.5625,4.083984375,-1.6416015625
0.184,-2.8427734375,3.603515625,-0.9609375
0.1845,-3.3232421875,3.5234375,-0.4404296875
0.185,-3.5634765625,2.8427734375,0.5205078125
0.1855,-3.923828125,2.40234375,1.2412109375
0.186,-4.0439453125,1.6015625,2.2021484375
0.1865,-3.84375,1.0009765625,2.6025390625
0.187,-3.5634765625,0.2802734375,3.04296875
0.1875,-3.283203125,-0.3603515625,3.4833984375
0.188,-2.802734375,-1.1611328125,3.8037109375
0.1885,-2.2421875,-1.921875,3.9638671875
0.189,-1.5615234375,-2.72265625,4.1240234375
0.1895,-0.640625,-3.0029296875,3.5634765625
0.19,0.0,-3.603515625,3.5234375
0.1905,0.9609375,-3.8837890625,2.8828125
0.191,1.6416015625,-4.1640625,2.482421875
0.1915,2.482421875,-4.2841796875,1.841796875
0.192,2.9228515625,-4.1640625,1.2412109375
0.1925,3.203125,-3.763671875,0.560546875
0.193,3.68359375,-3.603515625,-0.0400390625
0.1935,3.923828125,-2.8427734375,-1.0810546875
0.194,4.1240234375,-2.322265625,-1.7216796875
0.1945,4.2841796875,-1.4814453125,-2.642578125
0.195,3.8837890625,-0.80078125,-3.0029296875
0.1955,3.763671875,-0.1201171875,-3.5234375
0.196,3.3232421875,0.640625,-3.8837890625
0.1965,2.8427734375,1.44140625,-4.2041015625
0.197,2.162109375,2.2021484375,-4.32421875
0.1975,1.44140625,2.8427734375,-4.32421875
0.198,0.5205078125,3.1630859375,-3.7236328125
0.1985,-0.1201171875,3.763671875,-3.6435546875
0.199,-1.1611328125,3.923828125,-2.8427734375
0.1995,-1.8017578125,4.1240234375,-2.482421875
0.2,-2.6025390625,4.2041015625,-1.7216796875
0.2005,-2.962890625,3.84375,-1.12109375
0.201,-3.36328125,3.5634765625,-0.4404296875
0.2015,-3.8037109375,3.203125,0.2802734375
0.202,-3.9638671875,2.482421875,1.28125
0.2025,-4.1240234375,1.921875,1.921875
0.203,-4.1640625,1.2412109375,2.72265625
0.2035,-3.6435546875,0.4404296875,3.0029296875
0.204,-3.5634765625,-0.16015625,3.5634765625
0.2045,-2.9228515625,-1.0810546875,3.84375
0.205,-2.482421875,-1.8017578125,4.1240234375
0.2055,-1.7216796875,-2.5625,4.1240234375
0.206,-0.9609375,-3.0830078125,3.923828125
0.2065,-0.080078125,-3.4033203125,3.443359375
0.207,0.6005859375,-3.9638671875,3.283203125
0.2075,1.6015625,-4.1240234375,2.482421875
0.208,2.162109375,-4.32421875,2.162109375
0.2085,2.8828125,-4.3642578125,1.44140625
0.209,3.1630859375,-3.8837890625,0.7607421875
0.2095,3.5634765625,-3.7236328125,0.1201171875
0.21,3.923828125,-3.0830078125,-0.7607421875
0.2105,4.1240234375,-2.4423828125,-1.5615234375
0.211,4.1640625,-1.8017578125,-2.2822265625
0.2115,4.1240234375,-1.1611328125,-2.8828125
0.212,3.6435546875,-0.3203125,-3.203125
0.2125,3.6435546875,0.240234375,-3.763671875
0.213,2.8828125,1.201171875,-4.00390625
0.2135,2.5224609375,1.8017578125,-4.2841796875
0.214,1.76171875,2.5625,-4.2841796875
0.2145,0.9208984375,2.9228515625,-3.8837890625
0.215,0.1201171875,3.4033203125,-3.5634765625
0.2155,-0.640625,3.84375,-3.2431640625
0.216,-1.4814453125,3.9638671875,-2.5625
0.2165,-2.0419921875,4.083984375,-2.2021484375
0.217,-2.72265625,4.0439453125,-1.521484375
0.2175,-2.962890625,3.5234375,-0.80078125
0.218,-3.5634765625,3.5234375,-0.2001953125
0.2185,-3.7236328125,2.72265625,0.80078125
0.219,-4.00390625,2.2822265625,1.4814453125
0.2195,-4.0439453125,1.5615234375,2.2421875
0.22,-3.8837890625,0.9609375,2.6826171875
0.2205,-3.4833984375,0.16015625,3.123046875
0.221,-3.36328125,-0.5205078125,3.6435546875
0.2215,-2.6025390625,-1.44140625,3.8837890625
0.222,-2.2021484375,-2.0419921875,4.0439453125
0.2225,-1.361328125,-2.7626953125,4.00390625
0.223,-0.5205078125,-3.1630859375,3.5234375
0.2235,0.16015625,-3.7236328125,3.443359375
0.224,1.12109375,-4.00390625,2.802734375
0.2245,1.921875,-4.244140625,2.2822265625
0.225,2.4423828125,-4.244140625,1.841796875
0.2255,2.962890625,-4.2041015625,1.1611328125
0.226,3.2431640625,-3.603515625,0.4404296875
0.2265,3.84375,-3.5234375,-0.2001953125
0.227,3.9638671875,-2.5625,-1.3212890625
0.2275,4.2041015625,-2.2021484375,-1.921875
