wavelength,x,y,z
0.0,-18.818359375,0.3203125,17.537109375
0.0005,-16.9365234375,-3.123046875,19.1787109375
0.001,-14.814453125,-5.9658203125,19.939453125
0.0015,-12.01171875,-9.048828125,20.2197265625
0.002,-6.9267578125,-13.0126953125,19.37890625
0.0025,-2.962890625,-15.935546875,18.4580078125
0.003,1.12109375,-18.09765625,16.81640625
0.0035,4.484375,-19.458984375,15.0546875
0.004,7.3671875,-19.458984375,12.33203125
0.0045,10.6103515625,-19.5390625,9.4091796875
0.005,14.4541015625,-18.978515625,5.1650390625
0.0055,17.296875,-17.4970703125,1.0009765625
0.006,18.9384765625,-15.8955078125,-2.2822265625
0.0065,19.8193359375,-13.7734375,-5.205078125
0.007,19.8994140625,-10.970703125,-8.16796875
0.0075,19.5791015625,-6.7666015625,-12.1318359375
0.008,19.1787109375,-3.4033203125,-15.0947265625
0.0085,17.9775390625,0.3603515625,-17.537109375
0.009,16.095703125,3.7236328125,-19.0185546875
0.0095,13.453125,6.486328125,-19.21875
0.01,10.6103515625,9.609375,-19.619140625
0.0105,5.7255859375,13.5732421875,-18.8984375
0.011,1.44140625,16.255859375,-17.4169921875
0.0115,-1.9619140625,17.8974609375,-15.9755859375
0.012,-5.0849609375,19.05859375,-14.173828125
0.0125,-8.0078125,18.978515625,-11.4111328125
0.013,-11.5712890625,18.6181640625,-7.7275390625
0.0135,-14.8544921875,18.177734375,-4.083984375
0.014,-17.376953125,16.65625,0.0
0.0145,-18.7783203125,14.89453125,3.0029296875
0.015,-19.21875,12.4921875,5.8056640625
0.0155,-19.5791015625,9.8896484375,8.80859375
0.016,-19.2587890625,5.4853515625,12.7724609375
0.0165,-18.4580078125,2.0419921875,15.53515625
0.017,-17.1767578125,-1.28125,17.5771484375
0.0175,-15.3349609375,-4.2041015625,19.0185546875
0.018,-12.4521484375,-7.20703125,18.8984375
0.0185,-9.0888671875,-10.5703125,18.9384765625
0.019,-4.8046875,-14.1337890625,18.41796875
0.0195,-0.400390625,-16.6162109375,16.65625
0.02,2.6826171875,-17.9375,15.21484375
0.0205,5.60546875,-18.73828125,13.29296875
0.021,8.48828125,-18.8984375,10.73046875
0.0215,12.4521484375,-18.2578125,6.3662109375
0.022,15.375,-17.4970703125,2.802734375
0.0225,17.537109375,-16.0556640625,-0.720703125
0.023,18.6181640625,-14.333984375,-3.5634765625
0.0235,18.7783203125,-11.611328125,-6.4462890625
0.024,19.0185546875,-8.728515625,-9.6494140625
0.0245,18.8583984375,-4.7646484375,-13.3330078125
0.025,17.697265625,-1.041015625,-15.9755859375
0.0255,16.2158203125,2.001953125,-17.537109375
0.026,14.3740234375,4.96484375,-18.6982421875
0.0265,11.4912109375,7.84765625,-18.7783203125
0.027,7.1669921875,11.611328125,-18.2978515625
0.0275,3.4033203125,14.6943359375,-17.77734375
0.028,-0.720703125,16.9365234375,-16.1357421875
0.0285,-3.68359375,18.09765625,-14.57421875
0.029,-6.6064453125,18.41796875,-12.2119140625
0.0295,-9.6494140625,18.6181640625,-9.4892578125
0.03,-13.533203125,18.0576171875,-5.205078125
0.0305,-16.2958984375,16.7763671875,-1.3212890625
0.031,-18.017578125,15.375,1.841796875
0.0315,-18.978515625,13.4130859375,4.64453125
0.032,-19.0986328125,10.5302734375,7.5673828125
0.0325,-18.978515625,6.9267578125,11.2109375
0.033,-18.7783203125,3.443359375,14.4541015625
0.0335,-17.4970703125,-0.3603515625,17.0166015625
0.034,-15.775390625,-3.36328125,18.2578125
0.0345,-13.533203125,-6.2861328125,19.0185546875
0.035,-10.5703125,-9.3291015625,19.21875
0.0355,-5.685546875,-13.212890625,18.337890625
0.036,-1.681640625,-15.8955078125,17.2568359375
0.0365,1.921875,-17.77734375,15.775390625
0.037,4.724609375,-18.9384765625,14.013671875
0.0375,7.927734375,-18.8984375,11.2109375
0.038,11.3310546875,-18.658203125,7.84765625
0.0385,14.8544921875,-18.0576171875,3.84375
0.039,17.376953125,-16.49609375,-0.240234375
0.0395,18.578125,-14.89453125,-3.04296875
0.04,19.21875,-12.6123046875,-5.92578125
0.0405,19.2587890625,-9.609375,-8.96875
0.041,18.8984375,-5.4453125,-12.732421875
0.0415,18.2978515625,-2.0419921875,-15.5751953125
0.042,16.9765625,1.5615234375,-17.77734375
0.0425,14.974609375,4.484375,-18.7783203125
0.043,12.171875,7.447265625,-18.978515625
0.0435,8.80859375,10.7705078125,-19.05859375
0.044,4.1640625,14.4140625,-18.2578125
0.0445,-0.16015625,16.81640625,-16.5361328125
0.045,-3.1630859375,18.177734375,-15.0947265625
0.0455,-6.0859375,18.8583984375,-13.1328125
0.046,-9.12890625,18.73828125,-10.1298828125
0.0465,-12.7724609375,18.2578125,-6.2060546875
0.047,-15.8154296875,17.4169921875,-2.4423828125
0.0475,-18.017578125,15.7353515625,1.44140625
0.048,-18.8984375,13.853515625,4.0439453125
0.0485,-19.21875,11.291015625,7.046875
0.049,-19.2587890625,8.2080078125,10.169921875
0.0495,-18.8984375,4.1240234375,13.8134765625
0.05,-17.697265625,0.560546875,16.3359375
0.0505,-16.3359375,-2.642578125,18.09765625
0.051,-14.2939453125,-5.525390625,19.0185546875
0.0515,-11.2109375,-8.408203125,18.8984375
0.052,-7.3271484375,-11.8916015625,18.578125
0.0525,-3.04296875,-15.1748046875,17.77734375
0.053,1.201171875,-17.3369140625,15.935546875
0.0535,3.84375,-18.2177734375,14.4140625
0.054,6.8466796875,-18.818359375,12.171875
0.0545,9.9697265625,-18.6181640625,9.048828125
0.055,13.5732421875,-18.0576171875,5.044921875
0.0555,16.255859375,-16.9365234375,1.3212890625
0.056,18.09765625,-15.375,-2.1220703125
0.0565,18.6982421875,-13.29296875,-4.6845703125
0.057,18.818359375,-10.4501953125,-7.84765625
0.0575,18.73828125,-7.046875,-10.970703125
0.058,18.41796875,-3.4033203125,-14.3740234375
0.0585,17.056640625,0.3203125,-16.65625
0.059,15.4951171875,3.123046875,-17.9375
0.0595,13.373046875,6.0458984375,-18.73828125
0.06,10.08984375,9.0888671875,-18.6181640625
0.0605,5.845703125,12.65234375,-18.09765625
0.061,1.76171875,15.53515625,-17.056640625
0.0615,-2.0419921875,17.45703125,-15.455078125
0.062,-4.64453125,18.177734375,-13.7333984375
0.0625,-7.6875,18.498046875,-11.2509765625
0.063,-11.05078125,18.2978515625,-7.8076171875
0.0635,-14.4541015625,17.6171875,-3.923828125
0.064,-16.9365234375,16.17578125,-0.16015625
0.0645,-18.41796875,14.654296875,2.9228515625
0.065,-19.0185546875,12.4921875,5.7255859375
0.0655,-19.0986328125,9.3291015625,8.80859375
0.066,-18.7783203125,5.6455078125,12.2919921875
0.0665,-18.2578125,2.0419921875,15.375
0.067,-16.7763671875,-1.6416015625,17.5771484375
0.0675,-14.9345703125,-4.3642578125,18.41796875
0.068,-12.5322265625,-7.287109375,19.05859375
0.0685,-8.80859375,-10.73046875,18.8583984375
0.069,-4.3642578125,-14.1337890625,18.017578125
0.0695,-0.3203125,-16.5361328125,16.576171875
0.07,3.1630859375,-18.2578125,15.0546875
0.0705,5.92578125,-18.6982421875,12.9326171875
0.071,9.0087890625,-18.8984375,10.2099609375
0.0715,12.65234375,-18.5380859375,6.40625
0.072,15.8154296875,-17.6171875,2.40234375
0.0725,17.9775390625,-15.8955078125,-1.3212890625
0.073,19.0185546875,-14.1337890625,-4.1640625
0.0735,19.4990234375,-11.5712890625,-7.1669921875
0.074,19.458984375,-8.0478515625,-10.6103515625
0.0745,19.05859375,-4.3642578125,-13.9736328125
0.075,18.0576171875,-0.6806640625,-16.65625
0.0755,16.49609375,2.9228515625,-18.6982421875
0.076,14.1337890625,5.7255859375,-19.1787109375
0.0765,11.37109375,8.7685546875,-19.5390625
0.077,7.046875,12.4921875,-19.138671875
0.0775,2.6025390625,15.7353515625,-18.09765625
0.078,-1.4814453125,17.8173828125,-16.3359375
0.0785,-4.6044921875,19.138671875,-14.6943359375
0.079,-7.607421875,19.3388671875,-12.2119140625
0.0795,-10.890625,19.138671875,-8.8486328125
0.08,-14.5341796875,18.6181640625,-5.0048828125
0.0805,-17.45703125,17.296875,-0.6005859375
0.081,-19.37890625,15.4951171875,3.04296875
0.0815,-19.8994140625,13.2529296875,5.7255859375
0.082,-20.259765625,10.41015625,8.9287109375
0.0825,-19.939453125,6.3662109375,12.732421875
0.083,-19.3388671875,2.5625,15.8955078125
0.0835,-17.9375,-1.1611328125,18.177734375
0.084,-16.255859375,-4.564453125,19.8994140625
0.0845,-13.453125,-7.4072265625,20.099609375
0.085,-10.1298828125,-10.6103515625,20.01953125
0.0855,-5.6455078125,-14.2939453125,19.37890625
0.086,-0.9208984375,-17.296875,17.857421875
0.0865,2.962890625,-18.978515625,15.9755859375
0.087,5.845703125,-19.8193359375,14.09375
0.0875,9.0087890625,-20.01953125,11.3310546875
0.088,12.65234375,-19.458984375,7.20703125
0.0885,15.935546875,-18.6181640625,3.443359375
0.089,18.4580078125,-17.0166015625,-0.640625
0.0895,20.01953125,-15.0947265625,-4.1240234375
0.09,20.1796875,-12.4521484375,-6.88671875
0.0905,20.33984375,-9.4892578125,-10.08984375
0.091,19.859375,-5.28515625,-13.8134765625
0.0915,19.0185546875,-1.4013671875,-16.8564453125
0.092,17.1767578125,2.162109375,-18.73828125
0.0925,15.455078125,5.28515625,-19.9794921875
0.093,12.4521484375,8.328125,-20.1396484375
0.0935,8.328125,11.8916015625,-19.7392578125
0.094,4.2841796875,15.1748046875,-19.05859375
0.0945,-0.4404296875,17.8974609375,-17.3369140625
0.095,-4.00390625,19.3388671875,-15.455078125
0.0955,-6.7666015625,19.6591796875,-13.212890625
0.096,-9.9296875,19.859375,-10.6103515625
0.0965,-13.8935546875,19.138671875,-6.0458984375
0.097,-16.9365234375,18.0576171875,-2.001953125
0.0975,-19.0986328125,16.4560546875,1.76171875
0.098,-20.3798828125,14.4541015625,4.96484375
0.0985,-20.4599609375,11.53125,7.9677734375
0.099,-20.5,8.0478515625,11.4912109375
0.0995,-20.01953125,4.1240234375,14.974609375
0.1,-18.8984375,0.080078125,17.857421875
0.1005,-16.9765625,-3.5634765625,19.5791015625
0.101,-14.7744140625,-6.3662109375,20.33984375
0.1015,-11.8916015625,-9.4892578125,20.6201171875
0.102,-6.9267578125,-13.453125,19.779296875
0.1025,-2.72265625,-16.4560546875,18.73828125
0.103,1.6015625,-18.73828125,16.9365234375
0.1035,5.0849609375,-20.099609375,15.0947265625
0.104,7.9677734375,-20.0595703125,12.2919921875
0.1045,11.2109375,-20.0595703125,9.3291015625
0.105,15.1748046875,-19.298828125,4.8447265625
0.1055,18.09765625,-17.77734375,0.48046875
0.106,19.859375,-15.9755859375,-3.0830078125
0.1065,20.66015625,-13.8134765625,-6.0859375
0.107,20.740234375,-10.73046875,-9.1689453125
0.1075,20.3798828125,-6.56640625,-13.0126953125
0.108,19.859375,-2.9228515625,-16.095703125
0.1085,18.6181640625,1.28125,-18.6982421875
0.109,16.3759765625,4.6044921875,-20.2197265625
0.1095,13.4931640625,7.52734375,-20.3798828125
0.11,10.6103515625,10.6904296875,-20.7001953125
0.1105,5.365234375,14.814453125,-19.7392578125
0.111,0.8408203125,17.6171875,-18.2177734375
0.1115,-2.962890625,19.3388671875,-16.416015625
0.112,-6.2861328125,20.419921875,-14.494140625
0.1125,-9.4892578125,20.2197265625,-11.2509765625
0.113,-12.97265625,19.859375,-7.5673828125
0.1135,-16.49609375,19.138671875,-3.5234375
0.114,-19.21875,17.296875,1.041015625
0.1145,-20.580078125,15.3349609375,4.3642578125
0.115,-21.060546875,12.65234375,7.4072265625
0.1155,-21.220703125,9.7294921875,10.5302734375
0.116,-20.580078125,5.0048828125,14.654296875
0.1165,-19.5791015625,1.2412109375,17.537109375
0.117,-18.017578125,-2.5625,19.6591796875
0.1175,-16.015625,-5.92578125,21.060546875
0.118,-12.5322265625,-9.048828125,20.7802734375
0.1185,-9.0888671875,-12.33203125,20.7802734375
0.119,-4.1240234375,-16.17578125,19.8193359375
0.1195,0.880859375,-18.818359375,17.77734375
0.12,4.1640625,-20.1796875,15.935546875
0.1205,7.4072265625,-20.8203125,13.693359375
0.121,10.6103515625,-20.7001953125,10.5302734375
0.1215,14.6142578125,-19.8994140625,5.8857421875
0.122,17.77734375,-18.8984375,1.921875
0.1225,20.1396484375,-17.056640625,-2.2822265625
0.123,21.1806640625,-14.89453125,-5.4453125
0.1235,21.2607421875,-11.7314453125,-8.6884765625
0.124,21.3408203125,-8.5283203125,-11.9716796875
0.1245,20.7802734375,-4.0439453125,-15.8955078125
0.125,19.298828125,0.16015625,-18.6181640625
0.1255,17.45703125,3.603515625,-20.259765625
0.126,15.2548828125,6.88671875,-21.4208984375
0.1265,11.5712890625,10.1298828125,-21.1005859375
0.127,7.046875,13.93359375,-20.4599609375
0.1275,2.642578125,17.296875,-19.5390625
0.128,-2.2822265625,19.619140625,-17.45703125
0.1285,-5.4853515625,20.66015625,-15.4150390625
0.129,-8.728515625,20.9404296875,-12.65234375
0.1295,-12.0517578125,20.8203125,-9.44921875
0.13,-16.1357421875,19.859375,-4.5244140625
0.1305,-19.0986328125,18.2978515625,-0.16015625
0.131,-20.98046875,16.416015625,3.5634765625
0.1315,-21.78125,14.0537109375,6.7265625
0.132,-21.6611328125,10.5302734375,10.1298828125
0.1325,-21.380859375,6.6865234375,13.7333984375
0.133,-20.8203125,2.6025390625,17.2568359375
0.1335,-19.0986328125,-1.8017578125,19.939453125
0.134,-16.896484375,-5.125,21.1005859375
0.1345,-14.3740234375,-8.328125,21.8212890625
0.135,-10.6103515625,-11.69140625,21.5810546875
0.1355,-5.365234375,-15.53515625,20.5400390625
0.136,-0.80078125,-18.5380859375,19.05859375
0.1365,3.5234375,-20.580078125,17.0166015625
0.137,6.7666015625,-21.30078125,14.7744140625
0.1375,10.2099609375,-21.220703125,11.451171875
0.138,13.693359375,-20.900390625,7.8876953125
0.1385,17.537109375,-19.8994140625,3.1630859375
0.139,20.1796875,-17.9375,-1.4814453125
0.1395,21.5810546875,-15.8955078125,-4.8046875
0.14,22.1416015625,-13.2529296875,-8.087890625
0.1405,21.9814453125,-9.5693359375,-11.53125
0.141,21.30078125,-5.1650390625,-15.3349609375
0.1415,20.4599609375,-1.2412109375,-18.41796875
0.142,18.658203125,3.0830078125,-20.8603515625
0.1425,16.095703125,6.326171875,-21.6611328125
0.143,12.9326171875,9.6494140625,-21.94140625
0.1435,9.0087890625,13.1728515625,-21.701171875
0.144,3.603515625,17.0966796875,-20.4599609375
0.1445,-1.1611328125,19.69921875,-18.4580078125
0.145,-4.9248046875,21.2607421875,-16.5361328125
0.1455,-8.2080078125,21.78125,-13.9736328125
0.146,-11.8115234375,21.4609375,-10.330078125
0.1465,-15.4951171875,20.8203125,-6.166015625
0.147,-19.05859375,19.5390625,-1.5615234375
0.1475,-21.5009765625,17.4169921875,3.0830078125
0.148,-22.3818359375,15.0947265625,6.2861328125
0.1485,-22.7822265625,11.9716796875,9.7294921875
0.149,-22.5419921875,8.087890625,13.4130859375
0.1495,-21.7412109375,3.4833984375,17.2568359375
0.15,-20.259765625,-0.720703125,19.9794921875
0.1505,-18.2978515625,-4.7646484375,22.1015625
0.151,-15.4951171875,-8.0078125,22.5419921875
0.1515,-11.8515625,-11.451171875,22.421875
0.152,-7.4072265625,-15.21484375,21.9013671875
0.1525,-2.08203125,-18.7783203125,20.4599609375
0.153,2.8427734375,-21.0205078125,18.0576171875
0.1535,6.2861328125,-22.1015625,15.9755859375
0.154,9.7294921875,-22.4619140625,13.1328125
0.1545,13.4130859375,-21.94140625,9.0888671875
0.155,17.216796875,-21.2607421875,4.484375
0.1555,20.3798828125,-19.4189453125,0.0
0.156,22.5419921875,-17.1767578125,-4.484375
0.1565,22.982421875,-14.4541015625,-7.5673828125
0.157,23.1025390625,-10.970703125,-11.2109375
0.1575,22.662109375,-6.7265625,-15.0546875
0.158,21.78125,-2.2822265625,-18.578125
0.1585,19.8193359375,2.08203125,-20.98046875
0.159,17.6572265625,5.7255859375,-22.6220703125
0.1595,14.5341796875,9.0888671875,-22.9423828125
0.16,10.3701171875,12.732421875,-22.5419921875
0.1605,5.60546875,16.49609375,-21.6611328125
0.161,0.4404296875,19.8193359375,-20.01953125
0.1615,-4.2841796875,21.7412109375,-17.5771484375
0.162,-7.447265625,22.341796875,-15.2548828125
0.1625,-11.05078125,22.5419921875,-12.1318359375
0.163,-14.9345703125,21.7412109375,-7.6474609375
0.1635,-18.4580078125,20.6201171875,-3.0830078125
0.164,-21.220703125,18.6982421875,1.5615234375
0.1645,-23.0224609375,16.3759765625,5.5654296875
0.165,-23.1826171875,13.373046875,8.728515625
0.1655,-23.1826171875,9.6494140625,12.4921875
0.166,-22.4619140625,5.1650390625,16.255859375
0.1665,-21.4208984375,0.7607421875,19.69921875
0.167,-19.21875,-3.603515625,21.78125
0.1675,-16.8564453125,-6.9267578125,22.8623046875
0.168,-13.6533203125,-10.3701171875,23.1025390625
0.1685,-8.96875,-14.173828125,22.421875
0.169,-4.1640625,-17.6572265625,21.2607421875
0.1695,0.9609375,-20.4599609375,19.298828125
0.17,5.2451171875,-22.181640625,17.0166015625
0.1705,8.2880859375,-22.3017578125,14.2939453125
0.171,11.8115234375,-22.421875,11.0908203125
0.1715,15.9755859375,-21.4609375,6.2060546875
0.172,19.3388671875,-20.099609375,1.6416015625
0.1725,21.62109375,-18.0576171875,-2.6826171875
0.173,22.90234375,-15.7353515625,-6.2861328125
0.1735,22.9423828125,-12.4521484375,-9.5693359375
0.174,22.7421875,-8.3681640625,-13.453125
0.1745,21.94140625,-4.1640625,-16.896484375
0.175,20.6201171875,0.2001953125,-19.9794921875
0.1755,18.3779296875,4.3642578125,-21.861328125
0.176,15.6552734375,7.447265625,-22.3818359375
0.1765,12.4921875,10.8505859375,-22.662109375
0.177,7.2470703125,15.0546875,-21.7412109375
0.1775,2.5625,18.2177734375,-20.4599609375
0.178,-2.1220703125,20.5400390625,-18.3779296875
0.1785,-6.005859375,22.021484375,-16.255859375
0.179,-9.12890625,21.9013671875,-13.2529296875
0.1795,-12.732421875,21.701171875,-9.8896484375
0.18,-16.65625,20.9404296875,-5.205078125
0.1805,-19.8193359375,19.2587890625,-0.4404296875
0.181,-21.78125,17.13671875,3.68359375
0.1815,-22.58203125,14.654296875,6.88671875
0.182,-22.7421875,11.37109375,10.2900390625
0.1825,-22.26171875,6.88671875,14.4541015625
0.183,-21.5009765625,2.8427734375,17.6572265625
0.1835,-19.8994140625,-1.44140625,20.2998046875
0.184,-17.77734375,-5.4453125,22.1416015625
0.1845,-14.6142578125,-8.408203125,22.1416015625
0.185,-11.451171875,-11.69140625,22.3818359375
0.1855,-6.0859375,-15.8955078125,21.380859375
0.186,-1.0810546875,-18.9384765625,19.6591796875
0.1865,3.1630859375,-20.7802734375,17.6171875
0.187,6.6865234375,-21.94140625,15.455078125
0.1875,10.08984375,-21.861328125,12.2119140625
0.188,13.8134765625,-21.30078125,8.1279296875
0.1885,17.4169921875,-20.5,3.923828125
0.189,20.33984375,-18.658203125,-0.8408203125
0.1895,22.021484375,-16.4560546875,-4.6845703125
0.19,22.341796875,-13.6533203125,-7.767578125
0.1905,22.4619140625,-10.41015625,-11.05078125
0.191,21.9013671875,-5.6455078125,-15.455078125
0.1915,20.900390625,-1.6015625,-18.5380859375
0.192,19.0986328125,2.3623046875,-20.66015625
0.1925,16.9765625,6.1259765625,-22.3017578125
0.193,13.453125,9.3291015625,-22.1015625
0.1935,9.609375,12.97265625,-21.94140625
0.194,4.64453125,16.81640625,-21.1005859375
0.1945,-0.640625,19.779296875,-19.05859375
0.195,-4.4443359375,21.1806640625,-16.9365234375
0.1955,-7.7275390625,21.9013671875,-14.6142578125
0.196,-11.1708984375,21.9013671875,-11.4111328125
0.1965,-15.375,20.98046875,-6.40625
0.197,-18.578125,19.859375,-2.2421875
0.1975,-21.060546875,17.9375,2.162109375
0.198,-22.4619140625,15.6552734375,5.7255859375
0.1985,-22.4619140625,12.412109375,8.96875
0.199,-22.58203125,8.888671875,12.4921875
0.1995,-21.861328125,4.244140625,16.6162109375
0.2,-20.5,-0.2001953125,19.5791015625
0.2005,-18.41796875,-3.8837890625,21.3408203125
0.201,-16.17578125,-7.2470703125,22.5419921875
0.2015,-12.572265625,-10.5703125,22.3818359375
0.202,-7.7275390625,-14.57421875,21.5810546875
0.2025,-3.2431640625,-17.8974609375,20.6201171875
0.203,1.8818359375,-20.3798828125,18.41796875
0.2035,5.4853515625,-21.6611328125,16.2958984375
0.204,8.6884765625,-21.78125,13.4130859375
0.2045,12.091796875,-21.8212890625,10.2900390625
0.205,16.3759765625,-20.7802734375,5.125
0.2055,19.4189453125,-19.21875,0.640625
0.206,21.30078125,-17.2568359375,-3.203125
0.2065,22.341796875,-14.89453125,-6.486328125
0.207,22.0615234375,-11.4111328125,-9.76953125
0.2075,21.8212890625,-7.447265625,-13.61328125
0.208,21.220703125,-3.4033203125,-17.056640625
0.2085,19.69921875,1.0810546875,-19.859375
0.209,17.4169921875,4.64453125,-21.220703125
0.2095,14.734375,7.8076171875,-21.78125
0.21,11.3310546875,10.9306640625,-21.94140625
0.2105,5.92578125,15.294921875,-20.7802734375
0.211,1.5615234375,18.177734375,-19.4189453125
0.2115,-2.72265625,20.2197265625,-17.4970703125
0.212,-6.24609375,21.30078125,-15.375
0.2125,-9.4892578125,21.060546875,-12.0517578125
0.213,-12.8525390625,20.8603515625,-8.6884765625
0.2135,-16.7763671875,19.9794921875,-4.083984375
0.214,-19.5791015625,18.0576171875,0.6005859375
0.2145,-21.0205078125,16.095703125,3.84375
0.215,-21.78125,13.5732421875,7.126953125
0.2155,-21.6611328125,10.3701171875,10.25
0.216,-21.140625,5.8056640625,14.3740234375
0.2165,-20.3798828125,2.0419921875,17.4169921875
0.217,-18.8583984375,-1.9619140625,19.859375
0.2175,-16.6162109375,-5.4453125,21.140625
0.218,-13.453125,-8.5283203125,21.140625
