wavelength,x,y,z
0.0,3.603515625,0.560546875,-4.564453125
0.0005,2.6826171875,1.521484375,-4.724609375
0.001,2.0419921875,2.40234375,-4.884765625
0.0015,1.12109375,3.603515625,-5.1650390625
0.002,0.2802734375,3.84375,-4.484375
0.0025,-0.640625,4.484375,-4.2041015625
0.003,-1.6015625,4.5244140625,-3.283203125
0.0035,-2.4423828125,4.8046875,-2.72265625
0.004,-3.68359375,4.96484375,-1.6416015625
0.0045,-4.4443359375,4.9248046875,-0.9208984375
0.005,-4.64453125,4.1240234375,0.1201171875
0.0055,-5.125,3.8837890625,0.7607421875
0.006,-5.0048828125,2.802734375,1.7216796875
0.0065,-5.125,2.2822265625,2.322265625
0.007,-5.28515625,1.28125,3.5234375
0.0075,-4.8447265625,0.560546875,3.763671875
0.008,-4.3642578125,-0.5205078125,4.32421875
0.0085,-3.7236328125,-1.521484375,4.5244140625
0.009,-2.9228515625,-2.4423828125,4.6044921875
0.0095,-2.2021484375,-3.283203125,4.724609375
0.01,-1.3212890625,-4.2841796875,4.884765625
0.0105,-0.3603515625,-4.404296875,4.1240234375
0.011,0.3603515625,-5.044921875,3.9638671875
0.0115,1.4013671875,-5.044921875,2.9228515625
0.012,2.162109375,-5.28515625,2.482421875
0.0125,3.36328125,-5.4453125,1.44140625
0.013,3.923828125,-5.28515625,0.7607421875
0.0135,4.2041015625,-4.564453125,-0.240234375
0.014,4.564453125,-4.2841796875,-0.9208984375
0.0145,4.5244140625,-3.3232421875,-1.8017578125
0.015,4.64453125,-2.7626953125,-2.4423828125
0.0155,4.9248046875,-1.8818359375,-3.5634765625
0.016,4.2041015625,-0.9609375,-3.8037109375
0.0165,3.84375,0.0400390625,-4.404296875
0.017,3.0029296875,1.0810546875,-4.5244140625
0.0175,2.40234375,1.921875,-4.7646484375
0.018,1.5615234375,2.8828125,-4.8447265625
0.0185,0.80078125,3.7236328125,-4.884765625
0.019,-0.240234375,3.8837890625,-4.00390625
0.0195,-0.9208984375,4.484375,-3.8837890625
0.02,-2.08203125,4.484375,-2.7626953125
0.0205,-2.72265625,4.64453125,-2.322265625
0.021,-3.8837890625,4.8447265625,-1.3212890625
0.0215,-4.2841796875,4.4443359375,-0.6005859375
0.022,-4.6044921875,3.84375,0.3203125
0.0225,-4.8046875,3.36328125,1.0009765625
0.023,-4.8447265625,2.5224609375,1.8818359375
0.0235,-4.884765625,1.921875,2.482421875
0.024,-5.125,1.1611328125,3.4833984375
0.0245,-4.32421875,0.1201171875,3.6435546875
0.025,-4.1240234375,-0.7607421875,4.244140625
0.0255,-3.123046875,-1.8017578125,4.2041015625
0.026,-2.6826171875,-2.482421875,4.5244140625
0.0265,-1.8818359375,-3.36328125,4.564453125
0.027,-1.12109375,-4.00390625,4.4443359375
0.0275,-0.16015625,-4.244140625,3.7236328125
0.028,0.5205078125,-4.724609375,3.5234375
0.0285,1.6416015625,-4.8447265625,2.5224609375
0.029,2.2421875,-5.044921875,2.162109375
0.0295,3.3232421875,-5.1650390625,1.28125
0.03,3.5234375,-4.6044921875,0.48046875
0.0305,3.9638671875,-4.32421875,-0.2802734375
0.031,4.1240234375,-3.68359375,-1.041015625
0.0315,4.2841796875,-3.04296875,-1.8017578125
0.032,4.32421875,-2.40234375,-2.482421875
0.0325,4.484375,-1.76171875,-3.283203125
0.033,3.603515625,-0.640625,-3.5634765625
0.0335,3.4833984375,0.1201171875,-4.1640625
0.034,2.4423828125,1.28125,-4.1640625
0.0345,2.2021484375,1.921875,-4.4443359375
0.035,1.361328125,2.802734375,-4.5244140625
0.0355,0.6005859375,3.2431640625,-4.2041015625
0.036,-0.3203125,3.603515625,-3.68359375
0.0365,-1.0810546875,3.9638671875,-3.283203125
0.037,-2.08203125,4.1240234375,-2.4423828125
0.0375,-2.6826171875,4.32421875,-2.001953125
0.038,-3.603515625,4.4443359375,-1.2412109375
0.0385,-3.8037109375,3.68359375,-0.400390625
0.039,-4.2041015625,3.5634765625,0.240234375
0.0395,-4.244140625,2.72265625,1.0810546875
0.04,-4.5244140625,2.3623046875,1.681640625
0.0405,-4.564453125,1.5615234375,2.40234375
0.041,-4.564453125,0.9609375,3.0029296875
0.0415,-3.763671875,-0.16015625,3.283203125
0.042,-3.6435546875,-0.80078125,3.84375
0.0425,-2.72265625,-1.8017578125,3.8837890625
0.043,-2.5224609375,-2.322265625,4.2041015625
0.0435,-1.681640625,-3.203125,4.2041015625
0.044,-0.9208984375,-3.5234375,3.763671875
0.0445,-0.2001953125,-4.00390625,3.5234375
0.045,0.7607421875,-4.2841796875,2.8828125
0.0455,1.5615234375,-4.5244140625,2.2822265625
0.046,2.2421875,-4.64453125,1.8017578125
0.0465,2.8828125,-4.724609375,1.201171875
0.047,3.123046875,-4.0439453125,0.3203125
0.0475,3.5634765625,-4.00390625,-0.16015625
0.048,3.6435546875,-3.1630859375,-1.0810546875
0.0485,3.9638671875,-2.9228515625,-1.6015625
0.049,4.00390625,-2.2021484375,-2.4423828125
0.0495,3.8037109375,-1.521484375,-2.8828125
0.05,3.203125,-0.400390625,-3.283203125
0.0505,2.8828125,0.3603515625,-3.7236328125
0.051,2.162109375,1.28125,-3.8837890625
0.0515,1.921875,1.841796875,-4.1640625
0.052,1.201171875,2.6025390625,-4.1640625
0.0525,0.3203125,2.8828125,-3.603515625
0.053,-0.3203125,3.4033203125,-3.4833984375
0.0535,-1.3212890625,3.603515625,-2.642578125
0.054,-1.9619140625,3.923828125,-2.322265625
0.0545,-2.72265625,3.9638671875,-1.6416015625
0.055,-3.203125,3.84375,-1.12109375
0.0555,-3.4033203125,3.283203125,-0.3203125
0.056,-3.8037109375,3.1630859375,0.240234375
0.0565,-3.923828125,2.322265625,1.0810546875
0.057,-4.1640625,2.1220703125,1.5615234375
0.0575,-4.32421875,1.4013671875,2.322265625
0.058,-3.8837890625,0.640625,2.6826171875
0.0585,-3.603515625,-0.2001953125,3.2431640625
0.059,-3.04296875,-1.0009765625,3.4833984375
0.0595,-2.642578125,-1.8017578125,3.8037109375
0.06,-2.162109375,-2.40234375,3.923828125
0.0605,-1.5615234375,-3.04296875,3.923828125
0.061,-0.6806640625,-3.3232421875,3.36328125
0.0615,-0.080078125,-3.8837890625,3.3232421875
0.062,1.041015625,-4.083984375,2.40234375
0.0625,1.5615234375,-4.484375,2.2421875
0.063,2.322265625,-4.5244140625,1.521484375
0.0635,2.6826171875,-4.244140625,0.9609375
0.064,3.04296875,-3.84375,0.2001953125
0.0645,3.36328125,-3.5634765625,-0.4404296875
0.065,3.6435546875,-2.962890625,-1.3212890625
0.0655,3.763671875,-2.6025390625,-1.8017578125
0.066,3.8837890625,-1.8818359375,-2.5625
0.0665,3.203125,-0.880859375,-2.8828125
0.067,3.0830078125,-0.1201171875,-3.443359375
0.0675,2.2822265625,0.880859375,-3.603515625
0.068,2.08203125,1.521484375,-4.00390625
0.0685,1.44140625,2.1220703125,-3.9638671875
0.069,0.7607421875,2.6826171875,-3.84375
0.0695,-0.080078125,3.0029296875,-3.2431640625
0.07,-0.80078125,3.4833984375,-3.0830078125
0.0705,-1.8818359375,3.68359375,-2.2021484375
0.071,-2.322265625,3.8837890625,-1.9619140625
0.0715,-3.04296875,3.84375,-1.2412109375
0.072,-3.2431640625,3.4033203125,-0.560546875
0.0725,-3.603515625,3.04296875,0.080078125
0.073,-3.8037109375,2.482421875,0.7607421875
0.0735,-4.1240234375,2.08203125,1.44140625
0.074,-4.083984375,1.5615234375,1.9619140625
0.0745,-4.1640625,1.0009765625,2.6025390625
0.075,-3.4033203125,0.0,2.8828125
0.0755,-3.36328125,-0.640625,3.443359375
0.076,-2.482421875,-1.681640625,3.5634765625
0.0765,-2.3623046875,-2.2021484375,3.923828125
0.077,-1.6015625,-2.8427734375,3.8037109375
0.0775,-0.9609375,-3.283203125,3.5634765625
0.078,-0.16015625,-3.68359375,3.1630859375
0.0785,0.6806640625,-4.083984375,2.72265625
0.079,1.6416015625,-4.3642578125,2.08203125
0.0795,2.1220703125,-4.4443359375,1.7216796875
0.08,2.7626953125,-4.4443359375,1.0810546875
0.0805,3.0029296875,-3.923828125,0.2802734375
0.081,3.4033203125,-3.763671875,-0.3203125
0.0815,3.603515625,-2.962890625,-1.28125
0.082,3.8837890625,-2.642578125,-1.8017578125
0.0825,3.8037109375,-1.921875,-2.4423828125
0.083,3.68359375,-1.1611328125,-3.04296875
0.0835,2.8828125,-0.080078125,-3.283203125
0.084,2.72265625,0.640625,-3.8037109375
0.0845,1.841796875,1.7216796875,-4.00390625
0.085,1.5615234375,2.162109375,-4.1640625
0.0855,0.7607421875,2.802734375,-3.923828125
0.086,0.0,3.1630859375,-3.5234375
0.0865,-0.80078125,3.4833984375,-3.123046875
0.087,-1.8017578125,3.8037109375,-2.40234375
0.0875,-2.6025390625,4.0439453125,-1.8017578125
0.088,-3.04296875,3.84375,-1.2412109375
0.0885,-3.603515625,3.7236328125,-0.640625
0.089,-3.68359375,2.962890625,0.240234375
0.0895,-4.00390625,2.802734375,0.6806640625
0.09,-4.1640625,1.921875,1.76171875
0.0905,-4.3642578125,1.681640625,2.162109375
0.091,-4.1240234375,0.880859375,2.72265625
0.0915,-3.8037109375,0.080078125,3.1630859375
0.092,-3.1630859375,-0.880859375,3.4833984375
0.0925,-2.802734375,-1.6015625,3.8037109375
0.093,-2.08203125,-2.6025390625,4.00390625
0.0935,-1.681640625,-2.9228515625,3.9638671875
0.094,-0.9208984375,-3.603515625,3.84375
0.0945,0.0,-3.84375,3.2431640625
0.095,0.640625,-4.2841796875,2.9228515625
0.0955,1.76171875,-4.5244140625,2.08203125
0.096,2.482421875,-4.7646484375,1.6416015625
0.0965,2.8427734375,-4.484375,0.9208984375
0.097,3.443359375,-4.3642578125,0.2802734375
0.0975,3.5234375,-3.6435546875,-0.6005859375
0.098,3.84375,-3.3232421875,-1.1611328125
0.0985,4.1240234375,-2.482421875,-2.2021484375
0.099,4.083984375,-2.001953125,-2.6025390625
0.0995,3.84375,-1.0810546875,-3.283203125
0.1,3.283203125,-0.16015625,-3.6435546875
0.1005,2.6826171875,0.80078125,-3.923828125
0.101,2.08203125,1.7216796875,-4.2041015625
0.1015,1.4814453125,2.6826171875,-4.5244140625
0.102,0.720703125,3.0029296875,-4.083984375
0.1025,0.0,3.68359375,-3.9638671875
0.103,-1.0009765625,3.8037109375,-3.1630859375
0.1035,-1.76171875,4.1240234375,-2.802734375
0.104,-3.0029296875,4.3642578125,-1.8017578125
0.1045,-3.603515625,4.32421875,-1.201171875
0.105,-3.923828125,3.8037109375,-0.3603515625
0.1055,-4.3642578125,3.5634765625,0.2802734375
0.106,-4.3642578125,2.7626953125,1.12109375
0.1065,-4.5244140625,2.2822265625,1.76171875
0.107,-4.8046875,1.4814453125,2.8427734375
0.1075,-4.4443359375,0.80078125,3.123046875
0.108,-4.2041015625,-0.1201171875,3.763671875
0.1085,-3.443359375,-1.0810546875,3.923828125
0.109,-2.9228515625,-1.8818359375,4.1240234375
0.1095,-2.162109375,-2.8427734375,4.32421875
0.11,-1.4814453125,-3.68359375,4.484375
0.1105,-0.640625,-3.8837890625,3.84375
0.111,0.0400390625,-4.5244140625,3.8037109375
0.1115,1.0810546875,-4.564453125,2.8427734375
0.112,1.8017578125,-4.884765625,2.4423828125
0.1125,3.0029296875,-5.1650390625,1.44140625
0.113,3.443359375,-4.96484375,0.8408203125
0.1135,3.84375,-4.4443359375,0.0
0.114,4.1240234375,-4.0439453125,-0.6806640625
0.1145,4.2041015625,-3.283203125,-1.521484375
0.115,4.404296875,-2.642578125,-2.2822265625
0.1155,4.64453125,-1.9619140625,-3.283203125
0.116,4.00390625,-1.0009765625,-3.5634765625
0.1165,3.84375,0.0,-4.244140625
0.117,2.8828125,1.0009765625,-4.32421875
0.1175,2.40234375,1.841796875,-4.564453125
0.118,1.521484375,2.8828125,-4.7646484375
0.1185,0.7607421875,3.6435546875,-4.7646484375
0.119,-0.2802734375,3.84375,-3.9638671875
0.1195,-0.9208984375,4.4443359375,-3.84375
0.12,-2.162109375,4.484375,-2.72265625
0.1205,-2.8427734375,4.64453125,-2.2822265625
0.121,-4.0439453125,4.8447265625,-1.2412109375
0.1215,-4.3642578125,4.404296875,-0.400390625
0.122,-4.7646484375,3.84375,0.4404296875
0.1225,-4.9248046875,3.283203125,1.201171875
0.123,-4.96484375,2.40234375,2.08203125
0.1235,-5.0048828125,1.76171875,2.802734375
0.124,-5.1650390625,0.9208984375,3.763671875
0.1245,-4.2841796875,-0.2001953125,3.8837890625
0.125,-4.1240234375,-1.0009765625,4.484375
0.1255,-3.0029296875,-2.1220703125,4.484375
0.126,-2.482421875,-2.8427734375,4.64453125
0.1265,-1.6015625,-3.84375,4.7646484375
0.127,-0.80078125,-4.4443359375,4.484375
0.1275,0.2001953125,-4.64453125,3.763671875
0.128,0.9609375,-5.0849609375,3.4833984375
0.1285,2.2021484375,-5.205078125,2.3623046875
0.129,2.7626953125,-5.3251953125,1.8818359375
0.1295,3.8837890625,-5.4453125,0.9609375
0.13,4.00390625,-4.724609375,0.1201171875
0.1305,4.4443359375,-4.3642578125,-0.640625
0.131,4.564453125,-3.603515625,-1.521484375
0.1315,4.64453125,-2.8828125,-2.3623046875
0.132,4.64453125,-2.1220703125,-3.0830078125
0.1325,4.7646484375,-1.3212890625,-3.923828125
0.133,3.763671875,-0.1201171875,-4.1640625
0.1335,3.5634765625,0.6806640625,-4.6845703125
0.134,2.3623046875,1.9619140625,-4.724609375
0.1345,1.921875,2.6025390625,-4.9248046875
0.135,1.0009765625,3.603515625,-4.96484375
0.1355,0.080078125,4.1240234375,-4.5244140625
0.136,-0.9208984375,4.404296875,-3.84375
0.1365,-1.8017578125,4.8046875,-3.4033203125
0.137,-3.0830078125,4.8046875,-2.2421875
0.1375,-3.5634765625,4.9248046875,-1.681640625
0.138,-4.64453125,4.96484375,-0.720703125
0.1385,-4.7646484375,4.083984375,0.240234375
0.139,-5.125,3.7236328125,0.9609375
0.1395,-5.205078125,2.72265625,2.0419921875
0.14,-5.28515625,2.001953125,2.7626953125
0.1405,-5.1650390625,1.2412109375,3.4833984375
0.141,-5.125,0.3603515625,4.2041015625
0.1415,-4.00390625,-0.9208984375,4.32421875
0.142,-3.763671875,-1.6416015625,4.8046875
0.1425,-2.4423828125,-3.04296875,4.8046875
0.143,-2.0419921875,-3.5634765625,4.8447265625
0.1435,-1.0009765625,-4.4443359375,4.724609375
0.144,-0.080078125,-4.8046875,4.1240234375
0.1445,0.8408203125,-5.0849609375,3.5234375
0.145,1.8818359375,-5.4453125,2.8427734375
0.1455,2.962890625,-5.4052734375,1.841796875
0.146,3.4033203125,-5.3251953125,1.28125
0.1465,4.244140625,-5.28515625,0.4404296875
0.147,4.2841796875,-4.3642578125,-0.560546875
0.1475,4.6044921875,-4.083984375,-1.1611328125
0.148,4.724609375,-2.9228515625,-2.322265625
0.1485,4.8046875,-2.4423828125,-2.8828125
0.149,4.6044921875,-1.5615234375,-3.603515625
0.1495,4.404296875,-0.6806640625,-4.2041015625
0.15,3.36328125,0.560546875,-4.3642578125
0.1505,3.04296875,1.361328125,-4.8447265625
0.151,1.8017578125,2.6826171875,-4.8447265625
0.1515,1.521484375,3.0830078125,-4.884765625
0.152,0.48046875,3.923828125,-4.7646484375
0.1525,-0.560546875,4.2041015625,-4.0439453125
0.153,-1.361328125,4.484375,-3.5634765625
0.1535,-2.5224609375,4.8046875,-2.642578125
0.154,-3.5234375,4.9248046875,-1.8017578125
0.1545,-3.9638671875,4.64453125,-1.1611328125
0.155,-4.64453125,4.5244140625,-0.3203125
0.1555,-4.724609375,3.5634765625,0.6806640625
0.156,-5.044921875,3.3232421875,1.28125
0.1565,-5.0849609375,2.08203125,2.482421875
0.157,-5.125,1.7216796875,2.9228515625
0.1575,-4.884765625,0.7607421875,3.6435546875
0.158,-4.5244140625,-0.16015625,4.083984375
0.1585,-3.603515625,-1.28125,4.32421875
0.159,-3.203125,-2.08203125,4.6044921875
0.1595,-2.08203125,-3.283203125,4.724609375
0.16,-1.681640625,-3.603515625,4.6044921875
0.1605,-0.720703125,-4.4443359375,4.404296875
0.161,0.2802734375,-4.64453125,3.6435546875
0.1615,1.041015625,-5.0048828125,3.2431640625
0.162,2.2421875,-5.1650390625,2.2421875
0.1625,2.962890625,-5.28515625,1.6416015625
0.163,3.443359375,-4.96484375,0.9208984375
0.1635,4.00390625,-4.8046875,0.16015625
0.164,4.0439453125,-3.8837890625,-0.7607421875
0.1645,4.404296875,-3.6435546875,-1.3212890625
0.165,4.484375,-2.5625,-2.5224609375
0.1655,4.484375,-2.2021484375,-2.8427734375
0.166,4.2841796875,-1.2412109375,-3.5634765625
0.1665,3.68359375,-0.240234375,-3.923828125
0.167,3.0029296875,0.7607421875,-4.2041015625
0.1675,2.40234375,1.6416015625,-4.484375
0.168,1.681640625,2.642578125,-4.6845703125
0.1685,1.12109375,2.9228515625,-4.484375
0.169,0.240234375,3.68359375,-4.32421875
0.1695,-0.80078125,3.84375,-3.4033203125
0.17,-1.4814453125,4.2841796875,-3.203125
0.1705,-2.72265625,4.4443359375,-2.08203125
0.171,-3.2431640625,4.5244140625,-1.7216796875
0.1715,-3.8037109375,4.2041015625,-0.8408203125
0.172,-4.2041015625,3.8837890625,-0.16015625
0.1725,-4.32421875,3.123046875,0.7607421875
0.173,-4.564453125,2.7626953125,1.3212890625
0.1735,-4.7646484375,1.921875,2.3623046875
0.174,-4.6044921875,1.4814453125,2.642578125
0.1745,-4.5244140625,0.6005859375,3.4033203125
0.175,-3.763671875,-0.4404296875,3.6435546875
0.1755,-3.36328125,-1.28125,4.0439453125
0.176,-2.6025390625,-2.2822265625,4.2041015625
0.1765,-2.1220703125,-3.0029296875,4.404296875
0.177,-1.4013671875,-3.4033203125,4.0439453125
0.1775,-0.640625,-4.00390625,3.9638671875
0.178,0.3603515625,-4.1640625,3.1630859375
0.1785,1.041015625,-4.6044921875,2.8828125
0.179,2.2021484375,-4.8046875,1.921875
0.1795,2.5625,-4.8447265625,1.6015625
0.18,3.1630859375,-4.5244140625,0.7607421875
0.1805,3.443359375,-4.1640625,0.1201171875
0.181,3.7236328125,-3.603515625,-0.640625
0.1815,3.84375,-3.0830078125,-1.361328125
0.182,4.1640625,-2.5625,-2.2021484375
0.1825,3.8837890625,-1.9619140625,-2.5625
0.183,3.84375,-1.12109375,-3.283203125
0.1835,3.0029296875,0.0,-3.4833984375
0.184,2.802734375,0.7607421875,-3.8837890625
0.1845,1.921875,1.7216796875,-4.1240234375
0.185,1.681640625,2.2421875,-4.3642578125
0.1855,0.880859375,2.7626953125,-3.923828125
0.186,0.1201171875,3.283203125,-3.763671875
0.1865,-0.80078125,3.4833984375,-3.0830078125
0.187,-1.6015625,3.8837890625,-2.72265625
0.1875,-2.6025390625,4.1240234375,-1.9619140625
0.188,-2.9228515625,4.00390625,-1.521484375
0.1885,-3.5634765625,3.84375,-0.720703125
0.189,-3.68359375,3.2431640625,0.0
0.1895,-4.00390625,2.9228515625,0.640625
0.19,-4.1640625,2.2421875,1.4013671875
0.1905,-4.484375,1.921875,2.0419921875
0.191,-4.083984375,1.12109375,2.4423828125
0.1915,-4.00390625,0.4404296875,3.0830078125
0.192,-3.0830078125,-0.640625,3.1630859375
0.1925,-3.0830078125,-1.28125,3.763671875
0.193,-2.2822265625,-2.2822265625,3.8837890625
0.1935,-2.001953125,-2.6025390625,3.9638671875
0.194,-1.1611328125,-3.203125,3.68359375
0.1945,-0.48046875,-3.603515625,3.4033203125
0.195,0.3603515625,-3.9638671875,2.9228515625
0.1955,1.201171875,-4.244140625,2.40234375
0.196,2.0419921875,-4.564453125,1.921875
0.1965,2.322265625,-4.32421875,1.4013671875
0.197,2.962890625,-4.32421875,0.7607421875
0.1975,3.0830078125,-3.6435546875,0.0
0.198,3.5234375,-3.4833984375,-0.640625
0.1985,3.68359375,-2.7626953125,-1.521484375
0.199,3.8837890625,-2.482421875,-2.001953125
0.1995,3.5634765625,-1.5615234375,-2.5625
0.2,3.36328125,-0.9609375,-3.1630859375
0.2005,2.6826171875,0.240234375,-3.4033203125
0.201,2.40234375,0.7607421875,-3.8837890625
0.2015,1.841796875,1.8818359375,-4.1240234375
0.202,1.361328125,2.2021484375,-3.923828125
0.2025,0.6005859375,2.8427734375,-3.8037109375
0.203,-0.2802734375,3.1630859375,-3.2431640625
0.2035,-1.0009765625,3.5634765625,-2.9228515625
0.204,-1.9619140625,3.8037109375,-2.2421875
0.2045,-2.6826171875,4.0439453125,-1.76171875
0.205,-2.962890625,3.603515625,-1.041015625
0.2055,-3.5234375,3.5634765625,-0.5205078125
0.206,-3.603515625,2.802734375,0.3603515625
0.2065,-3.9638671875,2.5625,0.9208984375
0.207,-4.2041015625,1.921875,1.8017578125
0.2075,-4.1640625,1.521484375,2.162109375
0.208,-3.8837890625,0.6005859375,2.802734375
0.2085,-3.4833984375,-0.2001953125,3.123046875
0.209,-2.9228515625,-1.0009765625,3.5234375
0.2095,-2.5625,-1.8017578125,3.7236328125
0.21,-2.0419921875,-2.6025390625,4.00390625
0.2105,-1.4013671875,-2.8427734375,3.603515625
0.211,-0.7607421875,-3.5234375,3.5634765625
0.2115,0.1201171875,-3.68359375,2.8828125
0.212,0.80078125,-4.1240234375,2.642578125
0.2125,1.8017578125,-4.3642578125,1.921875
0.213,2.2822265625,-4.484375,1.5615234375
0.2135,2.6826171875,-4.083984375,0.80078125
0.214,3.0830078125,-3.923828125,0.2802734375
0.2145,3.3232421875,-3.3232421875,-0.560546875
0.215,3.5634765625,-3.0029296875,-1.1611328125
0.2155,3.8837890625,-2.4423828125,-2.0419921875
0.216,3.68359375,-1.8017578125,-2.40234375
0.2165,3.4833984375,-1.0009765625,-3.0830078125
0.217,2.8828125,0.0,-3.443359375
0.2175,2.5224609375,0.80078125,-3.763671875
0.218,1.921875,1.6416015625,-4.00390625
0.2185,1.4814453125,2.3623046875,-4.2041015625
0.219,0.6005859375,2.6826171875,-3.68359375
0.2195,0.0,3.283203125,-3.6435546875
0.22,-1.0009765625,3.4833984375,-2.8427734375
0.2205,-1.7216796875,3.84375,-2.5625
0.221,-2.7626953125,4.1240234375,-1.76171875
0.2215,-3.1630859375,3.8837890625,-1.1611328125
0.222,-3.603515625,3.5234375,-0.3603515625
0.2225,-3.84375,3.1630859375,0.240234375
0.223,-4.00390625,2.5625,1.0009765625
0.2235,-4.2041015625,2.0419921875,1.6416015625
0.224,-4.5244140625,1.4013671875,2.482421875
0.2245,-3.8837890625,0.6005859375,2.72265625
0.225,-3.84375,-0.2001953125,3.36328125
0.2255,-2.962890625,-1.0810546875,3.4833984375
0.226,-2.6826171875,-1.8017578125,3.84375
0.2265,-1.9619140625,-2.6826171875,4.00390625
0.227,-1.44140625,-3.203125,3.9638671875
0.2275,-0.640625,-3.5234375,3.443359375
0.228,0.0400390625,-4.00390625,3.283203125
0.2285,1.0009765625,-4.1640625,2.482421875
