wavelength,x,y,z
0.0,0.770751953125,-6.075927734375,3.333251953125
0.0005,-0.150146484375,-6.396240234375,4.454345703125
0.001,-0.870849609375,-6.596435546875,5.375244140625
0.0015,-1.911865234375,-6.075927734375,5.975830078125
0.002,-3.233154296875,-4.834716796875,6.376220703125
0.0025,-4.474365234375,-3.513427734375,6.456298828125
0.003,-5.435302734375,-2.232177734375,6.496337890625
0.0035,-5.915771484375,-1.431396484375,6.496337890625
0.004,-6.035888671875,-0.670654296875,6.216064453125
0.0045,-5.835693359375,0.370361328125,5.375244140625
0.005,-5.555419921875,1.651611328125,4.053955078125
0.0055,-5.315185546875,3.052978515625,2.652587890625
0.006,-5.114990234375,4.134033203125,1.531494140625
0.0065,-4.834716796875,4.854736328125,0.690673828125
0.007,-4.114013671875,5.215087890625,-0.310302734375
0.0075,-2.952880859375,5.415283203125,-1.551513671875
0.008,-1.591552734375,5.575439453125,-3.032958984375
0.0085,-0.430419921875,5.695556640625,-4.354248046875
0.009,0.450439453125,5.935791015625,-5.395263671875
0.0095,1.211181640625,5.815673828125,-6.236083984375
0.01,2.412353515625,5.014892578125,-6.676513671875
0.0105,3.813720703125,3.533447265625,-6.916748046875
0.011,4.974853515625,2.092041015625,-6.916748046875
0.0115,5.735595703125,0.890869140625,-6.796630859375
0.012,6.015869140625,0.170166015625,-6.716552734375
0.0125,5.895751953125,-0.790771484375,-6.035888671875
0.013,5.575439453125,-1.951904296875,-4.874755859375
0.0135,5.215087890625,-3.273193359375,-3.433349609375
0.014,4.934814453125,-4.634521484375,-1.991943359375
0.0145,4.614501953125,-5.515380859375,-0.990966796875
0.015,4.174072265625,-6.075927734375,-0.190185546875
0.0155,3.213134765625,-6.276123046875,0.930908203125
0.016,1.771728515625,-6.356201171875,2.412353515625
0.0165,0.370361328125,-6.396240234375,3.853759765625
0.017,-0.670654296875,-6.596435546875,5.054931640625
0.0175,-1.391357421875,-6.756591796875,5.895751953125
0.018,-2.352294921875,-6.196044921875,6.536376953125
0.0185,-3.673583984375,-4.994873046875,6.936767578125
0.019,-4.954833984375,-3.513427734375,6.976806640625
0.0195,-5.915771484375,-2.072021484375,6.896728515625
0.02,-6.436279296875,-1.071044921875,6.736572265625
0.0205,-6.516357421875,-0.350341796875,6.416259765625
0.021,-6.276123046875,0.690673828125,5.615478515625
0.0215,-5.915771484375,1.971923828125,4.174072265625
0.022,-5.515380859375,3.333251953125,2.692626953125
0.0225,-5.195068359375,4.534423828125,1.331298828125
0.023,-4.834716796875,5.255126953125,0.490478515625
0.0235,-4.194091796875,5.655517578125,-0.510498046875
0.024,-3.072998046875,5.735595703125,-1.631591796875
0.0245,-1.551513671875,5.775634765625,-3.193115234375
0.025,-0.230224609375,5.815673828125,-4.594482421875
0.0255,0.690673828125,5.935791015625,-5.635498046875
0.026,1.411376953125,6.055908203125,-6.436279296875
0.0265,2.452392578125,5.295166015625,-6.916748046875
0.027,3.853759765625,3.853759765625,-7.156982421875
0.0275,4.974853515625,2.412353515625,-7.116943359375
0.028,5.855712890625,0.970947265625,-6.996826171875
0.0285,6.216064453125,0.130126953125,-6.876708984375
0.029,6.135986328125,-0.670654296875,-6.396240234375
0.0295,5.815673828125,-1.671630859375,-5.395263671875
0.03,5.415283203125,-3.032958984375,-3.873779296875
0.0305,5.054931640625,-4.434326171875,-2.352294921875
0.031,4.734619140625,-5.475341796875,-1.191162109375
0.0315,4.374267578125,-6.115966796875,-0.350341796875
0.032,3.573486328125,-6.356201171875,0.610595703125
0.0325,2.292236328125,-6.436279296875,1.931884765625
0.033,0.810791015625,-6.476318359375,3.413330078125
0.0335,-0.510498046875,-6.556396484375,4.734619140625
0.034,-1.151123046875,-6.716552734375,5.695556640625
0.0345,-1.951904296875,-6.556396484375,6.416259765625
0.035,-3.113037109375,-5.635498046875,6.816650390625
0.0355,-4.474365234375,-4.154052734375,7.016845703125
0.036,-5.635498046875,-2.632568359375,6.936767578125
0.0365,-6.316162109375,-1.471435546875,6.856689453125
0.037,-6.556396484375,-0.710693359375,6.656494140625
0.0375,-6.396240234375,0.170166015625,6.055908203125
0.038,-6.075927734375,1.331298828125,4.814697265625
0.0385,-5.715576171875,2.692626953125,3.373291015625
0.039,-5.355224609375,4.093994140625,1.931884765625
0.0395,-5.074951171875,4.974853515625,0.890869140625
0.04,-4.634521484375,5.495361328125,0.090087890625
0.0405,-3.713623046875,5.695556640625,-1.031005859375
0.041,-2.232177734375,5.735595703125,-2.472412109375
0.0415,-0.790771484375,5.775634765625,-3.993896484375
0.042,0.290283203125,5.975830078125,-5.155029296875
0.0425,0.970947265625,6.095947265625,-6.075927734375
0.043,1.931884765625,5.695556640625,-6.716552734375
0.0435,3.173095703125,4.534423828125,-7.036865234375
0.044,4.494384765625,3.052978515625,-7.156982421875
0.0445,5.535400390625,1.531494140625,-7.076904296875
0.045,6.095947265625,0.530517578125,-6.916748046875
0.0455,6.216064453125,-0.310302734375,-6.676513671875
0.046,5.975830078125,-1.191162109375,-5.875732421875
0.0465,5.615478515625,-2.472412109375,-4.514404296875
0.047,5.255126953125,-3.873779296875,-2.952880859375
0.0475,4.934814453125,-5.155029296875,-1.591552734375
0.048,4.574462890625,-5.915771484375,-0.670654296875
0.0485,3.973876953125,-6.396240234375,0.290283203125
0.049,2.852783203125,-6.476318359375,1.411376953125
0.0495,1.291259765625,-6.556396484375,2.972900390625
0.05,-0.150146484375,-6.556396484375,4.494384765625
0.0505,-0.990966796875,-6.716552734375,5.495361328125
0.051,-1.711669921875,-6.756591796875,6.336181640625
0.0515,-2.792724609375,-6.035888671875,6.896728515625
0.052,-4.194091796875,-4.594482421875,7.096923828125
0.0525,-5.395263671875,-3.072998046875,7.096923828125
0.053,-6.276123046875,-1.671630859375,6.936767578125
0.0535,-6.596435546875,-0.830810546875,6.776611328125
0.054,-6.556396484375,0.050048828125,6.296142578125
0.0545,-6.276123046875,1.091064453125,5.255126953125
0.055,-5.835693359375,2.492431640625,3.733642578125
0.0555,-5.435302734375,3.853759765625,2.212158203125
0.056,-5.114990234375,4.894775390625,1.010986328125
0.0565,-4.754638671875,5.415283203125,0.170166015625
0.057,-3.913818359375,5.655517578125,-0.830810546875
0.0575,-2.592529296875,5.735595703125,-2.112060546875
0.058,-1.111083984375,5.815673828125,-3.633544921875
0.0585,0.210205078125,5.855712890625,-4.954833984375
0.059,0.930908203125,6.055908203125,-5.875732421875
0.0595,1.651611328125,5.815673828125,-6.596435546875
0.06,2.812744140625,4.974853515625,-6.996826171875
0.0605,4.134033203125,3.453369140625,-7.116943359375
0.061,5.215087890625,1.931884765625,-7.076904296875
0.0615,5.895751953125,0.770751953125,-6.916748046875
0.062,6.095947265625,0.050048828125,-6.716552734375
0.0625,5.935791015625,-0.830810546875,-6.115966796875
0.063,5.615478515625,-1.911865234375,-4.954833984375
0.0635,5.215087890625,-3.233154296875,-3.553466796875
0.064,4.894775390625,-4.554443359375,-2.031982421875
0.0645,4.574462890625,-5.475341796875,-1.031005859375
0.065,4.174072265625,-6.075927734375,-0.310302734375
0.0655,3.333251953125,-6.276123046875,0.690673828125
0.066,1.931884765625,-6.276123046875,2.052001953125
0.0665,0.610595703125,-6.316162109375,3.533447265625
0.067,-0.510498046875,-6.436279296875,4.734619140625
0.0675,-1.151123046875,-6.676513671875,5.615478515625
0.068,-1.991943359375,-6.356201171875,6.256103515625
0.0685,-3.193115234375,-5.315185546875,6.656494140625
0.069,-4.474365234375,-3.913818359375,6.776611328125
0.0695,-5.475341796875,-2.512451171875,6.696533203125
0.07,-6.115966796875,-1.511474609375,6.696533203125
0.0705,-6.276123046875,-0.830810546875,6.496337890625
0.071,-6.115966796875,0.050048828125,5.855712890625
0.0715,-5.795654296875,1.291259765625,4.614501953125
0.072,-5.475341796875,2.572509765625,3.213134765625
0.0725,-5.195068359375,3.853759765625,1.891845703125
0.073,-4.994873046875,4.654541015625,1.010986328125
0.0735,-4.514404296875,5.094970703125,0.170166015625
0.074,-3.553466796875,5.375244140625,-0.950927734375
0.0745,-2.192138671875,5.495361328125,-2.352294921875
0.075,-0.870849609375,5.615478515625,-3.793701171875
0.0755,0.090087890625,5.815673828125,-4.874755859375
0.076,0.730712890625,6.015869140625,-5.755615234375
0.0765,1.731689453125,5.495361328125,-6.356201171875
0.077,3.012939453125,4.294189453125,-6.596435546875
0.0775,4.134033203125,2.892822265625,-6.716552734375
0.078,5.094970703125,1.571533203125,-6.676513671875
0.0785,5.575439453125,0.810791015625,-6.676513671875
0.079,5.655517578125,0.090087890625,-6.356201171875
0.0795,5.455322265625,-0.870849609375,-5.595458984375
0.08,5.135009765625,-2.072021484375,-4.354248046875
0.0805,4.854736328125,-3.433349609375,-2.912841796875
0.081,4.654541015625,-4.514404296875,-1.871826171875
0.0815,4.454345703125,-5.275146484375,-1.111083984375
0.082,3.853759765625,-5.635498046875,-0.270263671875
0.0825,2.812744140625,-5.755615234375,0.970947265625
0.083,1.571533203125,-5.915771484375,2.292236328125
0.0835,0.410400390625,-6.115966796875,3.653564453125
0.084,-0.350341796875,-6.396240234375,4.654541015625
0.0845,-1.071044921875,-6.476318359375,5.455322265625
0.085,-2.072021484375,-5.835693359375,5.975830078125
0.0855,-3.353271484375,-4.634521484375,6.256103515625
0.086,-4.514404296875,-3.273193359375,6.336181640625
0.0865,-5.315185546875,-2.192138671875,6.376220703125
0.087,-5.755615234375,-1.551513671875,6.416259765625
0.0875,-5.755615234375,-0.830810546875,6.015869140625
0.088,-5.555419921875,0.250244140625,5.135009765625
0.0885,-5.315185546875,1.411376953125,3.973876953125
0.089,-5.114990234375,2.692626953125,2.692626953125
0.0895,-4.994873046875,3.693603515625,1.731689453125
0.09,-4.754638671875,4.414306640625,1.010986328125
0.0905,-4.114013671875,4.774658203125,0.170166015625
0.091,-3.032958984375,4.974853515625,-1.151123046875
0.0915,-1.791748046875,5.175048828125,-2.512451171875
0.092,-0.830810546875,5.455322265625,-3.753662109375
0.0925,-0.190185546875,5.775634765625,-4.754638671875
0.093,0.690673828125,5.695556640625,-5.515380859375
0.0935,1.851806640625,4.854736328125,-5.915771484375
0.094,3.052978515625,3.733642578125,-6.236083984375
0.0945,4.134033203125,2.452392578125,-6.356201171875
0.095,4.854736328125,1.531494140625,-6.396240234375
0.0955,5.215087890625,0.890869140625,-6.396240234375
0.096,5.175048828125,0.170166015625,-5.915771484375
0.0965,5.014892578125,-0.990966796875,-5.034912109375
0.097,4.814697265625,-2.272216796875,-3.873779296875
0.0975,4.654541015625,-3.553466796875,-2.672607421875
0.098,4.574462890625,-4.354248046875,-1.871826171875
0.0985,4.254150390625,-4.954833984375,-1.111083984375
0.099,3.533447265625,-5.315185546875,-0.190185546875
0.0995,2.412353515625,-5.515380859375,1.171142578125
0.1,1.291259765625,-5.795654296875,2.532470703125
0.1005,0.490478515625,-6.115966796875,3.653564453125
0.101,-0.270263671875,-6.436279296875,4.614501953125
0.1015,-1.151123046875,-6.115966796875,5.295166015625
0.102,-2.352294921875,-5.195068359375,5.735595703125
0.1025,-3.553466796875,-4.033935546875,5.975830078125
0.103,-4.554443359375,-2.872802734375,6.055908203125
0.1035,-5.155029296875,-2.152099609375,6.256103515625
0.104,-5.395263671875,-1.511474609375,6.095947265625
0.1045,-5.355224609375,-0.750732421875,5.575439453125
0.105,-5.195068359375,0.450439453125,4.574462890625
0.1055,-5.074951171875,1.651611328125,3.413330078125
0.106,-4.954833984375,2.852783203125,2.412353515625
0.1065,-4.834716796875,3.693603515625,1.691650390625
0.107,-4.434326171875,4.174072265625,0.930908203125
0.1075,-3.633544921875,4.534423828125,-0.230224609375
0.108,-2.592529296875,4.814697265625,-1.471435546875
0.1085,-1.551513671875,5.094970703125,-2.752685546875
0.109,-0.870849609375,5.495361328125,-3.833740234375
0.1095,-0.150146484375,5.735595703125,-4.794677734375
0.11,0.930908203125,5.255126953125,-5.395263671875
0.1105,2.132080078125,4.294189453125,-5.755615234375
0.111,3.293212890625,3.133056640625,-5.955810546875
0.1115,4.214111328125,2.092041015625,-6.115966796875
0.112,4.774658203125,1.451416015625,-6.316162109375
0.1125,4.934814453125,0.770751953125,-6.115966796875
0.113,4.854736328125,-0.230224609375,-5.435302734375
0.1135,4.734619140625,-1.351318359375,-4.514404296875
0.114,4.614501953125,-2.592529296875,-3.353271484375
0.1145,4.574462890625,-3.593505859375,-2.432373046875
0.115,4.494384765625,-4.434326171875,-1.751708984375
0.1155,3.973876953125,-4.874755859375,-0.910888671875
0.116,3.052978515625,-5.195068359375,0.330322265625
0.1165,1.971923828125,-5.515380859375,1.651611328125
0.117,1.091064453125,-5.915771484375,2.892822265625
0.1175,0.450439453125,-6.356201171875,3.973876953125
0.118,-0.510498046875,-6.316162109375,4.814697265625
0.1185,-1.591552734375,-5.635498046875,5.375244140625
0.119,-2.872802734375,-4.594482421875,5.735595703125
0.1195,-4.033935546875,-3.353271484375,5.935791015625
0.12,-4.834716796875,-2.552490234375,6.135986328125
0.1205,-5.235107421875,-1.951904296875,6.216064453125
0.121,-5.315185546875,-1.191162109375,5.815673828125
0.1215,-5.275146484375,-0.150146484375,4.934814453125
0.122,-5.114990234375,1.251220703125,3.853759765625
0.1225,-5.034912109375,2.492431640625,2.772705078125
0.123,-4.954833984375,3.413330078125,1.931884765625
0.1235,-4.674560546875,4.053955078125,1.211181640625
0.124,-3.953857421875,4.494384765625,0.250244140625
0.1245,-2.912841796875,4.774658203125,-1.151123046875
0.125,-1.831787109375,5.094970703125,-2.512451171875
0.1255,-1.031005859375,5.455322265625,-3.673583984375
0.126,-0.310302734375,5.735595703125,-4.674560546875
0.1265,0.690673828125,5.455322265625,-5.395263671875
0.127,1.931884765625,4.494384765625,-5.795654296875
0.1275,3.173095703125,3.293212890625,-6.075927734375
0.128,4.214111328125,2.132080078125,-6.156005859375
0.1285,4.814697265625,1.331298828125,-6.356201171875
0.129,5.014892578125,0.690673828125,-6.156005859375
0.1295,4.934814453125,-0.270263671875,-5.595458984375
0.13,4.814697265625,-1.311279296875,-4.514404296875
0.1305,4.654541015625,-2.632568359375,-3.353271484375
0.131,4.574462890625,-3.753662109375,-2.312255859375
0.1315,4.454345703125,-4.554443359375,-1.591552734375
0.132,3.973876953125,-5.034912109375,-0.790771484375
0.1325,3.052978515625,-5.315185546875,0.410400390625
0.133,1.931884765625,-5.595458984375,1.731689453125
0.1335,0.970947265625,-5.875732421875,3.012939453125
0.134,0.290283203125,-6.276123046875,4.093994140625
0.1345,-0.630615234375,-6.396240234375,4.974853515625
0.135,-1.631591796875,-5.755615234375,5.535400390625
0.1355,-2.912841796875,-4.634521484375,5.895751953125
0.136,-4.154052734375,-3.393310546875,6.055908203125
0.1365,-4.994873046875,-2.432373046875,6.135986328125
0.137,-5.435302734375,-1.751708984375,6.256103515625
0.1375,-5.515380859375,-1.031005859375,5.855712890625
0.138,-5.355224609375,0.090087890625,5.054931640625
0.1385,-5.195068359375,1.291259765625,3.893798828125
0.139,-5.034912109375,2.532470703125,2.732666015625
0.1395,-4.914794921875,3.533447265625,1.851806640625
0.14,-4.674560546875,4.214111328125,1.091064453125
0.1405,-4.033935546875,4.614501953125,0.210205078125
0.141,-2.992919921875,4.854736328125,-1.151123046875
0.1415,-1.791748046875,5.135009765625,-2.512451171875
0.142,-0.950927734375,5.455322265625,-3.713623046875
0.1425,-0.270263671875,5.775634765625,-4.754638671875
0.143,0.730712890625,5.615478515625,-5.475341796875
0.1435,1.931884765625,4.774658203125,-5.955810546875
0.144,3.173095703125,3.533447265625,-6.236083984375
0.1445,4.294189453125,2.212158203125,-6.356201171875
0.145,4.974853515625,1.291259765625,-6.396240234375
0.1455,5.255126953125,0.610595703125,-6.396240234375
0.146,5.255126953125,-0.230224609375,-5.795654296875
0.1465,5.054931640625,-1.311279296875,-4.794677734375
0.147,4.854736328125,-2.592529296875,-3.553466796875
0.1475,4.694580078125,-3.873779296875,-2.352294921875
0.148,4.534423828125,-4.754638671875,-1.471435546875
0.1485,4.134033203125,-5.275146484375,-0.710693359375
0.149,3.253173828125,-5.555419921875,0.370361328125
0.1495,2.052001953125,-5.755615234375,1.731689453125
0.15,0.930908203125,-5.995849609375,3.133056640625
0.1505,0.130126953125,-6.356201171875,4.214111328125
0.151,-0.710693359375,-6.516357421875,5.175048828125
0.1515,-1.751708984375,-6.035888671875,5.815673828125
0.152,-3.072998046875,-4.874755859375,6.216064453125
0.1525,-4.314208984375,-3.553466796875,6.376220703125
0.153,-5.275146484375,-2.352294921875,6.416259765625
0.1535,-5.755615234375,-1.591552734375,6.416259765625
0.154,-5.835693359375,-0.790771484375,6.135986328125
0.1545,-5.755615234375,0.290283203125,5.295166015625
0.155,-5.475341796875,1.571533203125,4.013916015625
0.1555,-5.275146484375,2.932861328125,2.692626953125
0.156,-5.074951171875,4.013916015625,1.571533203125
0.1565,-4.834716796875,4.734619140625,0.810791015625
0.157,-4.114013671875,5.094970703125,-0.190185546875
0.1575,-2.952880859375,5.295166015625,-1.471435546875
0.158,-1.631591796875,5.455322265625,-2.952880859375
0.1585,-0.510498046875,5.735595703125,-4.314208984375
0.159,0.330322265625,5.935791015625,-5.315185546875
0.1595,1.211181640625,5.775634765625,-6.115966796875
0.16,2.372314453125,4.894775390625,-6.556396484375
0.1605,3.773681640625,3.453369140625,-6.796630859375
0.161,4.894775390625,1.971923828125,-6.836669921875
0.1615,5.615478515625,0.850830078125,-6.756591796875
0.162,5.895751953125,0.170166015625,-6.596435546875
0.1625,5.735595703125,-0.790771484375,-5.955810546875
0.163,5.455322265625,-1.951904296875,-4.794677734375
0.1635,5.135009765625,-3.313232421875,-3.353271484375
0.164,4.854736328125,-4.634521484375,-1.951904296875
0.1645,4.534423828125,-5.475341796875,-0.990966796875
0.165,4.134033203125,-6.035888671875,-0.150146484375
0.1655,3.173095703125,-6.156005859375,0.970947265625
0.166,1.651611328125,-6.276123046875,2.492431640625
0.1665,0.330322265625,-6.396240234375,3.893798828125
0.167,-0.670654296875,-6.556396484375,5.014892578125
0.1675,-1.351318359375,-6.636474609375,5.895751953125
0.168,-2.352294921875,-6.115966796875,6.536376953125
0.1685,-3.713623046875,-4.874755859375,6.816650390625
0.169,-4.954833984375,-3.473388671875,6.896728515625
0.1695,-5.915771484375,-2.031982421875,6.776611328125
0.17,-6.356201171875,-1.031005859375,6.696533203125
0.1705,-6.436279296875,-0.310302734375,6.336181640625
0.171,-6.156005859375,0.690673828125,5.455322265625
0.1715,-5.795654296875,2.052001953125,4.053955078125
0.172,-5.435302734375,3.333251953125,2.572509765625
0.1725,-5.114990234375,4.534423828125,1.291259765625
0.173,-4.834716796875,5.255126953125,0.450439453125
0.1735,-4.114013671875,5.575439453125,-0.510498046875
0.174,-2.952880859375,5.695556640625,-1.671630859375
0.1745,-1.551513671875,5.735595703125,-3.193115234375
0.175,-0.230224609375,5.815673828125,-4.594482421875
0.1755,0.650634765625,5.975830078125,-5.595458984375
0.176,1.411376953125,5.975830078125,-6.396240234375
0.1765,2.492431640625,5.175048828125,-6.916748046875
0.177,3.853759765625,3.773681640625,-7.076904296875
0.1775,4.974853515625,2.252197265625,-7.116943359375
0.178,5.815673828125,0.970947265625,-6.916748046875
0.1785,6.135986328125,0.170166015625,-6.796630859375
0.179,6.095947265625,-0.670654296875,-6.276123046875
0.1795,5.735595703125,-1.751708984375,-5.275146484375
0.18,5.415283203125,-3.153076171875,-3.793701171875
0.1805,5.054931640625,-4.514404296875,-2.272216796875
0.181,4.734619140625,-5.475341796875,-1.151123046875
0.1815,4.374267578125,-6.115966796875,-0.310302734375
0.182,3.533447265625,-6.356201171875,0.690673828125
0.1825,2.172119140625,-6.436279296875,2.052001953125
0.183,0.690673828125,-6.476318359375,3.533447265625
0.1835,-0.590576171875,-6.556396484375,4.854736328125
0.184,-1.231201171875,-6.756591796875,5.735595703125
0.1845,-2.072021484375,-6.516357421875,6.536376953125
0.185,-3.273193359375,-5.515380859375,6.896728515625
0.1855,-4.674560546875,-3.993896484375,7.056884765625
0.186,-5.755615234375,-2.472412109375,6.976806640625
0.1865,-6.396240234375,-1.311279296875,6.856689453125
0.187,-6.596435546875,-0.590576171875,6.616455078125
0.1875,-6.396240234375,0.370361328125,5.895751953125
0.188,-6.075927734375,1.571533203125,4.614501953125
