wavelength,x,y,z
0.0,5.735595703125,-0.990966796875,-5.635498046875
0.0005,5.815673828125,-2.272216796875,-4.834716796875
0.001,5.455322265625,-3.673583984375,-3.353271484375
0.0015,4.854736328125,-4.754638671875,-1.951904296875
0.002,4.454345703125,-5.235107421875,-0.990966796875
0.0025,3.893798828125,-5.835693359375,0.010009765625
0.003,3.453369140625,-6.516357421875,0.970947265625
0.0035,1.971923828125,-6.676513671875,2.532470703125
0.004,0.450439453125,-6.436279296875,3.893798828125
0.0045,-0.750732421875,-6.196044921875,4.774658203125
0.005,-1.431396484375,-6.115966796875,5.415283203125
0.0055,-2.392333984375,-5.795654296875,6.256103515625
0.006,-3.593505859375,-5.074951171875,6.976806640625
0.0065,-4.954833984375,-3.473388671875,6.976806640625
0.007,-5.715576171875,-1.871826171875,6.456298828125
0.0075,-5.955810546875,-0.830810546875,6.055908203125
0.008,-6.115966796875,0.090087890625,5.815673828125
0.0085,-6.356201171875,0.970947265625,5.295166015625
0.009,-6.156005859375,2.372314453125,4.053955078125
0.0095,-5.635498046875,3.693603515625,2.452392578125
0.01,-4.874755859375,4.614501953125,1.131103515625
0.0105,-4.474365234375,5.094970703125,0.290283203125
0.011,-3.913818359375,5.535400390625,-0.670654296875
0.0115,-3.273193359375,6.095947265625,-1.791748046875
0.012,-1.671630859375,6.095947265625,-3.353271484375
0.0125,0.010009765625,5.735595703125,-4.554443359375
0.013,0.770751953125,5.495361328125,-5.235107421875
0.0135,1.451416015625,5.415283203125,-5.915771484375
0.014,2.532470703125,4.974853515625,-6.756591796875
0.0145,3.853759765625,3.853759765625,-7.197021484375
0.015,4.974853515625,2.252197265625,-7.076904296875
0.0155,5.575439453125,0.770751953125,-6.476318359375
0.016,5.775634765625,-0.230224609375,-6.236083984375
0.0165,5.895751953125,-1.071044921875,-5.795654296875
0.017,6.095947265625,-2.072021484375,-5.315185546875
0.0175,5.775634765625,-3.553466796875,-3.833740234375
0.018,5.094970703125,-4.834716796875,-2.272216796875
0.0185,4.454345703125,-5.395263671875,-0.990966796875
0.019,3.973876953125,-5.915771484375,0.010009765625
0.0195,3.453369140625,-6.436279296875,0.890869140625
0.02,2.412353515625,-6.836669921875,2.172119140625
0.0205,0.770751953125,-6.716552734375,3.693603515625
0.021,-0.630615234375,-6.276123046875,4.654541015625
0.0215,-1.311279296875,-6.156005859375,5.335205078125
0.022,-2.112060546875,-6.035888671875,6.095947265625
0.0225,-3.153076171875,-5.675537109375,6.936767578125
0.023,-4.554443359375,-4.154052734375,7.096923828125
0.0235,-5.515380859375,-2.432373046875,6.696533203125
0.024,-6.075927734375,-1.271240234375,6.256103515625
0.0245,-6.156005859375,-0.430419921875,5.895751953125
0.025,-6.316162109375,0.530517578125,5.575439453125
0.0255,-6.396240234375,1.651611328125,4.734619140625
0.026,-5.915771484375,3.133056640625,3.173095703125
0.0265,-5.275146484375,4.134033203125,1.731689453125
0.027,-4.674560546875,4.814697265625,0.650634765625
0.0275,-4.274169921875,5.375244140625,-0.230224609375
0.028,-3.873779296875,5.975830078125,-1.111083984375
0.0285,-2.392333984375,6.095947265625,-2.632568359375
0.029,-0.790771484375,5.895751953125,-4.033935546875
0.0295,0.370361328125,5.615478515625,-4.914794921875
0.03,1.091064453125,5.535400390625,-5.595458984375
0.0305,1.971923828125,5.295166015625,-6.396240234375
0.031,3.173095703125,4.614501953125,-7.116943359375
0.0315,4.494384765625,3.012939453125,-7.116943359375
0.032,5.415283203125,1.531494140625,-6.716552734375
0.0325,5.735595703125,0.250244140625,-6.276123046875
0.033,5.855712890625,-0.630615234375,-6.035888671875
0.0335,6.135986328125,-1.471435546875,-5.715576171875
0.034,5.935791015625,-2.872802734375,-4.434326171875
0.0345,5.415283203125,-4.234130859375,-2.832763671875
0.035,4.734619140625,-5.155029296875,-1.431396484375
0.0355,4.214111328125,-5.755615234375,-0.510498046875
0.036,3.773681640625,-6.276123046875,0.490478515625
0.0365,3.173095703125,-6.916748046875,1.571533203125
0.037,1.451416015625,-6.876708984375,3.213134765625
0.0375,-0.190185546875,-6.516357421875,4.494384765625
0.038,-1.151123046875,-6.276123046875,5.175048828125
0.0385,-1.871826171875,-6.196044921875,5.935791015625
0.039,-2.912841796875,-5.755615234375,6.776611328125
0.0395,-4.234130859375,-4.634521484375,7.257080078125
0.04,-5.555419921875,-2.952880859375,7.136962890625
0.0405,-6.075927734375,-1.471435546875,6.496337890625
0.041,-6.276123046875,-0.510498046875,6.095947265625
0.0415,-6.476318359375,0.290283203125,5.655517578125
0.042,-6.596435546875,1.451416015625,5.255126953125
0.0425,-6.196044921875,3.012939453125,3.613525390625
0.043,-5.555419921875,4.214111328125,1.931884765625
0.0435,-4.834716796875,4.894775390625,0.690673828125
0.044,-4.354248046875,5.415283203125,-0.230224609375
0.0445,-3.793701171875,5.895751953125,-1.151123046875
0.045,-2.712646484375,6.296142578125,-2.472412109375
0.0455,-1.071044921875,6.135986328125,-3.993896484375
0.046,0.410400390625,5.695556640625,-4.954833984375
0.0465,1.171142578125,5.455322265625,-5.635498046875
0.047,1.931884765625,5.295166015625,-6.316162109375
0.0475,2.892822265625,4.974853515625,-7.156982421875
0.048,4.374267578125,3.493408203125,-7.277099609375
0.0485,5.335205078125,1.611572265625,-6.916748046875
0.049,5.695556640625,0.330322265625,-6.356201171875
0.0495,5.895751953125,-0.430419921875,-6.035888671875
0.05,6.015869140625,-1.311279296875,-5.715576171875
0.0505,5.975830078125,-2.552490234375,-4.794677734375
0.051,5.535400390625,-3.833740234375,-3.273193359375
0.0515,4.814697265625,-4.874755859375,-1.751708984375
0.052,4.254150390625,-5.475341796875,-0.710693359375
0.0525,3.853759765625,-6.035888671875,0.130126953125
0.053,3.453369140625,-6.596435546875,0.970947265625
0.0535,2.052001953125,-6.716552734375,2.412353515625
0.054,0.450439453125,-6.436279296875,3.773681640625
0.0545,-0.790771484375,-6.115966796875,4.614501953125
0.055,-1.391357421875,-6.115966796875,5.295166015625
0.0555,-2.232177734375,-5.915771484375,6.095947265625
0.056,-3.193115234375,-5.435302734375,6.736572265625
0.0565,-4.554443359375,-3.913818359375,6.816650390625
0.057,-5.355224609375,-2.312255859375,6.376220703125
0.0575,-5.755615234375,-1.351318359375,5.895751953125
0.058,-5.955810546875,-0.430419921875,5.815673828125
0.0585,-6.276123046875,0.450439453125,5.615478515625
0.059,-6.115966796875,1.611572265625,4.614501953125
0.0595,-5.635498046875,2.932861328125,3.093017578125
0.06,-5.074951171875,3.853759765625,1.771728515625
0.0605,-4.634521484375,4.534423828125,0.850830078125
0.061,-4.314208984375,5.135009765625,0.050048828125
0.0615,-3.833740234375,5.735595703125,-0.990966796875
0.062,-2.432373046875,5.855712890625,-2.392333984375
0.0625,-0.910888671875,5.535400390625,-3.713623046875
0.063,0.130126953125,5.415283203125,-4.514404296875
0.0635,0.810791015625,5.455322265625,-5.315185546875
0.064,1.731689453125,5.255126953125,-6.156005859375
0.0645,3.012939453125,4.414306640625,-6.756591796875
0.065,4.134033203125,2.852783203125,-6.716552734375
0.0655,4.934814453125,1.531494140625,-6.196044921875
0.066,5.255126953125,0.570556640625,-6.075927734375
0.0665,5.535400390625,-0.310302734375,-5.915771484375
0.067,5.855712890625,-1.151123046875,-5.675537109375
0.0675,5.615478515625,-2.512451171875,-4.394287109375
0.068,5.054931640625,-3.713623046875,-2.832763671875
0.0685,4.494384765625,-4.514404296875,-1.671630859375
0.069,4.134033203125,-5.195068359375,-0.830810546875
0.0695,3.853759765625,-5.795654296875,0.130126953125
0.07,3.052978515625,-6.276123046875,1.251220703125
0.0705,1.571533203125,-6.276123046875,2.612548828125
0.071,0.250244140625,-5.955810546875,3.693603515625
0.0715,-0.630615234375,-5.955810546875,4.494384765625
0.072,-1.311279296875,-5.955810546875,5.255126953125
0.0725,-2.272216796875,-5.955810546875,6.216064453125
0.073,-3.553466796875,-4.634521484375,6.456298828125
0.0735,-4.594482421875,-3.193115234375,6.135986328125
0.074,-5.155029296875,-1.871826171875,5.895751953125
0.0745,-5.475341796875,-1.031005859375,5.735595703125
0.075,-5.755615234375,-0.310302734375,5.575439453125
0.0755,-5.915771484375,0.770751953125,5.054931640625
0.076,-5.595458984375,2.052001953125,3.733642578125
0.0765,-5.034912109375,3.052978515625,2.412353515625
0.077,-4.594482421875,3.813720703125,1.371337890625
0.0775,-4.354248046875,4.454345703125,0.610595703125
0.078,-4.154052734375,5.175048828125,-0.190185546875
0.0785,-3.072998046875,5.415283203125,-1.431396484375
0.079,-1.671630859375,5.335205078125,-2.712646484375
0.0795,-0.590576171875,5.135009765625,-3.673583984375
0.08,0.250244140625,5.175048828125,-4.474365234375
0.0805,0.970947265625,5.175048828125,-5.395263671875
0.081,1.931884765625,4.934814453125,-6.156005859375
0.0815,3.213134765625,3.693603515625,-6.396240234375
0.082,4.093994140625,2.212158203125,-6.075927734375
0.0825,4.614501953125,1.211181640625,-5.835693359375
0.083,5.014892578125,0.490478515625,-5.795654296875
0.0835,5.415283203125,-0.350341796875,-5.755615234375
0.084,5.375244140625,-1.431396484375,-4.994873046875
0.0845,5.054931640625,-2.632568359375,-3.713623046875
0.085,4.534423828125,-3.593505859375,-2.432373046875
0.0855,4.294189453125,-4.354248046875,-1.631591796875
0.086,4.093994140625,-5.074951171875,-0.830810546875
0.0865,3.813720703125,-5.755615234375,0.130126953125
0.087,2.572509765625,-5.955810546875,1.411376953125
0.0875,1.211181640625,-5.795654296875,2.612548828125
0.088,0.290283203125,-5.755615234375,3.493408203125
0.0885,-0.430419921875,-5.915771484375,4.374267578125
0.089,-1.351318359375,-5.955810546875,5.295166015625
0.0895,-2.432373046875,-5.315185546875,5.855712890625
0.09,-3.593505859375,-3.993896484375,5.975830078125
0.0905,-4.434326171875,-2.632568359375,5.695556640625
0.091,-4.874755859375,-1.791748046875,5.615478515625
0.0915,-5.275146484375,-1.111083984375,5.615478515625
0.092,-5.715576171875,-0.390380859375,5.615478515625
0.0925,-5.555419921875,0.890869140625,4.534423828125
0.093,-5.155029296875,2.052001953125,3.253173828125
0.0935,-4.634521484375,2.892822265625,2.132080078125
0.094,-4.554443359375,3.653564453125,1.411376953125
0.0945,-4.394287109375,4.454345703125,0.610595703125
0.095,-3.833740234375,5.014892578125,-0.470458984375
0.0955,-2.672607421875,5.135009765625,-1.671630859375
0.096,-1.431396484375,4.974853515625,-2.752685546875
0.0965,-0.710693359375,5.094970703125,-3.553466796875
0.097,0.170166015625,5.215087890625,-4.554443359375
0.0975,0.970947265625,5.295166015625,-5.635498046875
0.098,2.252197265625,4.334228515625,-5.955810546875
0.0985,3.333251953125,2.972900390625,-5.835693359375
0.099,4.053955078125,1.771728515625,-5.715576171875
0.0995,4.494384765625,1.091064453125,-5.715576171875
0.1,4.974853515625,0.370361328125,-5.755615234375
0.1005,5.215087890625,-0.630615234375,-5.395263671875
0.101,5.054931640625,-1.791748046875,-4.354248046875
0.1015,4.734619140625,-2.872802734375,-3.193115234375
0.102,4.294189453125,-3.633544921875,-2.152099609375
0.1025,4.134033203125,-4.474365234375,-1.391357421875
0.103,4.134033203125,-5.275146484375,-0.630615234375
0.1035,3.173095703125,-5.715576171875,0.610595703125
0.104,1.931884765625,-5.675537109375,1.851806640625
0.1045,0.850830078125,-5.755615234375,2.772705078125
0.105,0.170166015625,-5.835693359375,3.693603515625
0.1055,-0.750732421875,-5.995849609375,4.694580078125
0.106,-1.711669921875,-5.755615234375,5.615478515625
0.1065,-2.912841796875,-4.594482421875,5.815673828125
0.107,-3.913818359375,-3.193115234375,5.655517578125
0.1075,-4.554443359375,-2.272216796875,5.575439453125
0.108,-4.994873046875,-1.511474609375,5.575439453125
0.1085,-5.435302734375,-0.790771484375,5.615478515625
0.109,-5.555419921875,0.330322265625,4.974853515625
0.1095,-5.315185546875,1.411376953125,3.693603515625
0.11,-4.834716796875,2.492431640625,2.572509765625
0.1105,-4.634521484375,3.293212890625,1.731689453125
0.111,-4.474365234375,4.053955078125,0.970947265625
0.1115,-4.234130859375,4.814697265625,0.130126953125
0.112,-3.153076171875,5.094970703125,-1.231201171875
0.1125,-1.791748046875,5.054931640625,-2.352294921875
0.113,-0.910888671875,4.974853515625,-3.353271484375
0.1135,-0.270263671875,5.175048828125,-4.194091796875
0.114,0.770751953125,5.215087890625,-5.195068359375
0.1145,1.891845703125,4.614501953125,-5.875732421875
0.115,3.052978515625,3.333251953125,-6.035888671875
0.1155,3.893798828125,2.052001953125,-5.755615234375
0.116,4.454345703125,1.211181640625,-5.715576171875
0.1165,4.854736328125,0.490478515625,-5.715576171875
0.117,5.295166015625,-0.390380859375,-5.675537109375
0.1175,5.135009765625,-1.631591796875,-4.634521484375
0.118,4.774658203125,-2.752685546875,-3.313232421875
0.1185,4.374267578125,-3.633544921875,-2.232177734375
0.119,4.174072265625,-4.394287109375,-1.431396484375
0.1195,3.973876953125,-5.155029296875,-0.630615234375
0.12,3.413330078125,-5.755615234375,0.490478515625
0.1205,2.052001953125,-5.995849609375,1.731689453125
0.121,0.890869140625,-5.755615234375,2.852783203125
0.1215,0.170166015625,-5.795654296875,3.693603515625
0.122,-0.670654296875,-5.915771484375,4.614501953125
0.1225,-1.591552734375,-5.915771484375,5.615478515625
0.123,-2.872802734375,-4.834716796875,5.975830078125
0.1235,-3.953857421875,-3.393310546875,5.895751953125
0.124,-4.634521484375,-2.232177734375,5.655517578125
0.1245,-5.074951171875,-1.471435546875,5.575439453125
0.125,-5.435302734375,-0.710693359375,5.495361328125
0.1255,-5.635498046875,0.330322265625,5.175048828125
0.126,-5.435302734375,1.531494140625,3.973876953125
0.1265,-4.994873046875,2.572509765625,2.652587890625
0.127,-4.634521484375,3.373291015625,1.691650390625
0.1275,-4.474365234375,4.093994140625,0.970947265625
0.128,-4.234130859375,4.814697265625,0.170166015625
0.1285,-3.193115234375,5.215087890625,-1.191162109375
0.129,-1.951904296875,5.135009765625,-2.352294921875
0.1295,-0.910888671875,5.054931640625,-3.353271484375
0.13,-0.230224609375,5.175048828125,-4.194091796875
0.1305,0.770751953125,5.255126953125,-5.114990234375
0.131,1.771728515625,4.934814453125,-6.035888671875
0.1315,3.052978515625,3.693603515625,-6.236083984375
0.132,3.973876953125,2.212158203125,-6.035888671875
0.1325,4.574462890625,1.211181640625,-5.795654296875
0.133,4.934814453125,0.490478515625,-5.755615234375
0.1335,5.375244140625,-0.430419921875,-5.675537109375
0.134,5.375244140625,-1.551513671875,-4.834716796875
0.1345,5.054931640625,-2.792724609375,-3.553466796875
0.135,4.534423828125,-3.793701171875,-2.272216796875
0.1355,4.254150390625,-4.514404296875,-1.431396484375
0.136,3.973876953125,-5.155029296875,-0.630615234375
0.1365,3.533447265625,-5.915771484375,0.490478515625
0.137,2.252197265625,-6.115966796875,1.811767578125
0.1375,0.930908203125,-5.955810546875,3.012939453125
0.138,0.010009765625,-5.875732421875,3.853759765625
0.1385,-0.790771484375,-5.955810546875,4.734619140625
0.139,-1.711669921875,-5.795654296875,5.655517578125
0.1395,-2.952880859375,-5.034912109375,6.256103515625
0.14,-4.154052734375,-3.593505859375,6.296142578125
0.1405,-4.914794921875,-2.192138671875,5.895751953125
0.141,-5.315185546875,-1.311279296875,5.735595703125
0.1415,-5.635498046875,-0.590576171875,5.575439453125
0.142,-5.955810546875,0.370361328125,5.415283203125
0.1425,-5.755615234375,1.731689453125,4.134033203125
0.143,-5.275146484375,2.972900390625,2.652587890625
0.1435,-4.794677734375,3.773681640625,1.531494140625
0.144,-4.514404296875,4.414306640625,0.730712890625
0.1445,-3.993896484375,5.135009765625,-0.310302734375
0.145,-3.353271484375,5.495361328125,-1.351318359375
0.1455,-1.951904296875,5.615478515625,-2.832763671875
0.146,-0.590576171875,5.375244140625,-3.913818359375
0.1465,0.290283203125,5.375244140625,-4.674560546875
0.147,1.051025390625,5.295166015625,-5.515380859375
0.1475,2.052001953125,5.094970703125,-6.436279296875
0.148,3.493408203125,3.813720703125,-6.796630859375
0.1485,4.574462890625,2.172119140625,-6.596435546875
0.149,5.094970703125,0.930908203125,-6.156005859375
0.1495,5.415283203125,0.090087890625,-5.955810546875
0.15,5.655517578125,-0.830810546875,-5.675537109375
0.1505,5.775634765625,-2.031982421875,-4.954833984375
0.151,5.415283203125,-3.433349609375,-3.553466796875
0.1515,4.854736328125,-4.514404296875,-1.991943359375
0.152,4.334228515625,-5.114990234375,-0.990966796875
0.1525,3.933837890625,-5.835693359375,-0.310302734375
0.153,3.453369140625,-6.516357421875,0.810791015625
0.1535,2.172119140625,-6.636474609375,2.252197265625
0.154,0.610595703125,-6.436279296875,3.733642578125
0.1545,-0.630615234375,-6.115966796875,4.574462890625
0.155,-1.311279296875,-6.115966796875,5.295166015625
0.1555,-2.272216796875,-5.795654296875,6.135986328125
0.156,-3.393310546875,-5.195068359375,6.896728515625
0.1565,-4.754638671875,-3.633544921875,6.896728515625
0.157,-5.595458984375,-1.991943359375,6.496337890625
0.1575,-5.915771484375,-0.990966796875,6.055908203125
0.158,-6.115966796875,-0.150146484375,5.735595703125
0.1585,-6.276123046875,0.850830078125,5.375244140625
0.159,-6.156005859375,2.212158203125,4.174072265625
0.1595,-5.675537109375,3.533447265625,2.612548828125
0.16,-4.994873046875,4.414306640625,1.291259765625
0.1605,-4.514404296875,4.974853515625,0.370361328125
0.161,-3.953857421875,5.375244140625,-0.670654296875
0.1615,-3.433349609375,6.015869140625,-1.591552734375
0.162,-1.871826171875,6.095947265625,-3.193115234375
0.1625,-0.310302734375,5.735595703125,-4.434326171875
0.163,0.690673828125,5.495361328125,-5.114990234375
0.1635,1.411376953125,5.415283203125,-5.835693359375
0.164,2.492431640625,5.014892578125,-6.716552734375
0.1645,3.733642578125,3.973876953125,-7.197021484375
0.165,4.854736328125,2.412353515625,-7.076904296875
0.1655,5.535400390625,0.890869140625,-6.516357421875
0.166,5.735595703125,-0.150146484375,-6.156005859375
0.1665,5.895751953125,-0.990966796875,-5.835693359375
0.167,6.135986328125,-1.951904296875,-5.435302734375
0.1675,5.815673828125,-3.433349609375,-3.913818359375
0.168,5.175048828125,-4.674560546875,-2.272216796875
0.1685,4.494384765625,-5.395263671875,-1.031005859375
0.169,4.013916015625,-6.075927734375,-0.230224609375
0.1695,3.533447265625,-6.556396484375,0.850830078125
0.17,2.532470703125,-6.916748046875,2.172119140625
0.1705,0.850830078125,-6.756591796875,3.693603515625
0.171,-0.630615234375,-6.356201171875,4.734619140625
0.1715,-1.391357421875,-6.236083984375,5.335205078125
0.172,-2.192138671875,-6.035888671875,6.135986328125
0.1725,-3.193115234375,-5.715576171875,7.016845703125
0.173,-4.634521484375,-4.154052734375,7.177001953125
0.1735,-5.635498046875,-2.472412109375,6.856689453125
0.174,-6.075927734375,-1.151123046875,6.256103515625
0.1745,-6.236083984375,-0.310302734375,5.935791015625
0.175,-6.356201171875,0.690673828125,5.535400390625
0.1755,-6.396240234375,1.851806640625,4.734619140625
0.176,-5.955810546875,3.213134765625,3.173095703125
0.1765,-5.275146484375,4.254150390625,1.651611328125
0.177,-4.634521484375,4.814697265625,0.530517578125
0.1775,-4.194091796875,5.375244140625,-0.350341796875
0.178,-3.753662109375,5.975830078125,-1.231201171875
0.1785,-2.392333984375,6.135986328125,-2.632568359375
0.179,-0.790771484375,5.895751953125,-4.114013671875
0.1795,0.450439453125,5.575439453125,-4.834716796875
0.18,1.171142578125,5.495361328125,-5.635498046875
0.1805,2.052001953125,5.255126953125,-6.436279296875
0.181,3.173095703125,4.694580078125,-7.197021484375
0.1815,4.494384765625,3.052978515625,-7.197021484375
0.182,5.335205078125,1.411376953125,-6.716552734375
0.1825,5.695556640625,0.290283203125,-6.276123046875
0.183,5.895751953125,-0.630615234375,-6.035888671875
0.1835,6.095947265625,-1.511474609375,-5.635498046875
0.184,5.935791015625,-2.832763671875,-4.514404296875
0.1845,5.415283203125,-4.154052734375,-2.912841796875
0.185,4.734619140625,-5.114990234375,-1.511474609375
0.1855,4.214111328125,-5.715576171875,-0.550537109375
0.186,3.773681640625,-6.236083984375,0.370361328125
0.1865,3.213134765625,-6.796630859375,1.411376953125
0.187,1.571533203125,-6.796630859375,3.012939453125
0.1875,0.090087890625,-6.396240234375,4.214111328125
0.188,-1.031005859375,-6.236083984375,5.054931640625
