wavelength,x,y,z
0.0,2.172119140625,-4.033935546875,1.291259765625
0.0005,2.572509765625,-3.673583984375,0.490478515625
0.001,3.052978515625,-3.593505859375,-0.110107421875
0.0015,3.333251953125,-2.992919921875,-0.990966796875
0.002,3.533447265625,-2.712646484375,-1.311279296875
0.0025,3.413330078125,-1.951904296875,-1.951904296875
0.003,3.213134765625,-1.271240234375,-2.472412109375
0.0035,2.852783203125,-0.270263671875,-3.072998046875
0.004,2.532470703125,0.490478515625,-3.473388671875
0.0045,2.252197265625,1.291259765625,-3.873779296875
0.005,1.731689453125,1.611572265625,-3.713623046875
0.0055,1.091064453125,2.292236328125,-3.713623046875
0.006,0.250244140625,2.692626953125,-3.273193359375
0.0065,-0.550537109375,3.293212890625,-3.153076171875
0.007,-1.591552734375,3.573486328125,-2.352294921875
0.0075,-2.112060546875,3.813720703125,-2.072021484375
0.008,-2.592529296875,3.533447265625,-1.311279296875
0.0085,-3.072998046875,3.453369140625,-0.830810546875
0.009,-3.393310546875,2.932861328125,0.010009765625
0.0095,-3.793701171875,2.612548828125,0.610595703125
0.01,-4.073974609375,2.092041015625,1.531494140625
0.0105,-3.953857421875,1.651611328125,1.851806640625
0.011,-3.873779296875,0.850830078125,2.532470703125
0.0115,-3.433349609375,0.010009765625,2.932861328125
0.012,-3.153076171875,-0.830810546875,3.413330078125
0.0125,-2.552490234375,-1.711669921875,3.693603515625
0.013,-2.232177734375,-2.312255859375,3.933837890625
0.0135,-1.511474609375,-2.632568359375,3.533447265625
0.014,-0.950927734375,-3.233154296875,3.573486328125
0.0145,0.010009765625,-3.553466796875,3.012939453125
0.015,0.690673828125,-4.073974609375,2.732666015625
0.0155,1.771728515625,-4.354248046875,1.931884765625
0.016,2.172119140625,-4.314208984375,1.531494140625
0.0165,2.652587890625,-4.114013671875,0.770751953125
0.017,3.052978515625,-3.873779296875,0.250244140625
0.0175,3.333251953125,-3.473388671875,-0.510498046875
0.018,3.573486328125,-2.872802734375,-1.271240234375
0.0185,3.933837890625,-2.432373046875,-2.031982421875
0.019,3.533447265625,-1.671630859375,-2.392333984375
0.0195,3.533447265625,-0.950927734375,-3.072998046875
0.02,2.812744140625,0.090087890625,-3.353271484375
0.0205,2.612548828125,0.810791015625,-3.873779296875
0.021,1.891845703125,1.851806640625,-4.114013671875
0.0215,1.451416015625,2.372314453125,-4.154052734375
0.022,0.610595703125,2.772705078125,-3.713623046875
0.0225,0.010009765625,3.333251953125,-3.633544921875
0.023,-0.990966796875,3.613525390625,-2.952880859375
0.0235,-1.871826171875,4.013916015625,-2.552490234375
0.024,-2.912841796875,4.254150390625,-1.671630859375
0.0245,-3.233154296875,3.853759765625,-1.031005859375
0.025,-3.793701171875,3.653564453125,-0.310302734375
0.0255,-4.073974609375,3.173095703125,0.410400390625
0.026,-4.354248046875,2.692626953125,1.171142578125
0.0265,-4.514404296875,2.011962890625,2.052001953125
0.027,-4.674560546875,1.411376953125,2.812744140625
0.0275,-4.033935546875,0.450439453125,3.093017578125
0.028,-3.993896484375,-0.350341796875,3.773681640625
0.0285,-3.113037109375,-1.351318359375,3.893798828125
0.029,-2.792724609375,-2.112060546875,4.294189453125
0.0295,-1.951904296875,-3.153076171875,4.454345703125
0.03,-1.191162109375,-3.633544921875,4.134033203125
0.0305,-0.350341796875,-3.993896484375,3.693603515625
0.031,0.370361328125,-4.514404296875,3.453369140625
0.0315,1.491455078125,-4.674560546875,2.572509765625
0.032,2.292236328125,-4.954833984375,2.052001953125
0.0325,3.293212890625,-5.114990234375,1.171142578125
0.033,3.453369140625,-4.474365234375,0.370361328125
0.0335,3.973876953125,-4.354248046875,-0.310302734375
0.034,4.134033203125,-3.553466796875,-1.151123046875
0.0345,4.334228515625,-2.992919921875,-1.951904296875
0.035,4.494384765625,-2.192138671875,-2.792724609375
0.0355,4.494384765625,-1.471435546875,-3.513427734375
0.036,3.613525390625,-0.350341796875,-3.713623046875
0.0365,3.493408203125,0.490478515625,-4.354248046875
0.037,2.412353515625,1.691650390625,-4.474365234375
0.0375,1.971923828125,2.372314453125,-4.714599609375
0.038,1.131103515625,3.373291015625,-4.834716796875
0.0385,0.210205078125,3.773681640625,-4.234130859375
0.039,-0.630615234375,4.134033203125,-3.833740234375
0.0395,-1.591552734375,4.614501953125,-3.313232421875
0.04,-2.752685546875,4.734619140625,-2.312255859375
0.0405,-3.473388671875,4.774658203125,-1.711669921875
0.041,-4.434326171875,4.774658203125,-0.790771484375
0.0415,-4.474365234375,3.853759765625,0.130126953125
0.042,-4.994873046875,3.773681640625,0.810791015625
0.0425,-5.114990234375,2.732666015625,1.931884765625
0.043,-5.195068359375,2.132080078125,2.612548828125
0.0435,-5.155029296875,1.251220703125,3.493408203125
0.044,-4.954833984375,0.370361328125,4.053955078125
0.0445,-3.993896484375,-0.830810546875,4.294189453125
0.045,-3.833740234375,-1.631591796875,4.854736328125
0.0455,-2.552490234375,-2.992919921875,4.894775390625
0.046,-2.112060546875,-3.513427734375,4.974853515625
0.0465,-1.071044921875,-4.514404296875,4.894775390625
0.047,-0.110107421875,-4.754638671875,4.174072265625
0.0475,0.770751953125,-5.155029296875,3.773681640625
0.048,1.931884765625,-5.595458984375,2.932861328125
0.0485,3.093017578125,-5.675537109375,1.891845703125
0.049,3.613525390625,-5.595458984375,1.291259765625
0.0495,4.494384765625,-5.475341796875,0.290283203125
0.05,4.494384765625,-4.434326171875,-0.630615234375
0.0505,4.974853515625,-4.274169921875,-1.271240234375
0.051,5.094970703125,-2.992919921875,-2.632568359375
0.0515,5.094970703125,-2.392333984375,-3.193115234375
0.052,4.854736328125,-1.351318359375,-3.993896484375
0.0525,4.534423828125,-0.430419921875,-4.554443359375
0.053,3.533447265625,0.810791015625,-4.754638671875
0.0535,3.133056640625,1.771728515625,-5.275146484375
0.054,1.771728515625,3.213134765625,-5.315185546875
0.0545,1.331298828125,3.533447265625,-5.195068359375
0.055,0.250244140625,4.494384765625,-4.994873046875
0.0555,-0.830810546875,4.694580078125,-4.154052734375
0.056,-1.711669921875,5.094970703125,-3.673583984375
0.0565,-3.072998046875,5.335205078125,-2.632568359375
0.057,-4.114013671875,5.335205078125,-1.671630859375
0.0575,-4.514404296875,4.974853515625,-0.910888671875
0.058,-5.275146484375,4.814697265625,0.050048828125
0.0585,-5.275146484375,3.733642578125,1.131103515625
0.059,-5.635498046875,3.493408203125,1.771728515625
0.0595,-5.715576171875,2.052001953125,3.213134765625
0.06,-5.595458984375,1.491455078125,3.613525390625
0.0605,-5.235107421875,0.410400390625,4.334228515625
0.061,-4.754638671875,-0.630615234375,4.774658203125
0.0615,-3.793701171875,-1.791748046875,4.974853515625
0.062,-3.233154296875,-2.712646484375,5.295166015625
0.0625,-1.951904296875,-4.073974609375,5.375244140625
0.063,-1.431396484375,-4.314208984375,5.054931640625
0.0635,-0.310302734375,-5.114990234375,4.774658203125
0.064,0.770751953125,-5.315185546875,3.853759765625
0.0645,1.571533203125,-5.755615234375,3.413330078125
0.065,3.012939453125,-5.915771484375,2.252197265625
0.0655,3.853759765625,-5.955810546875,1.411376953125
0.066,4.174072265625,-5.395263671875,0.610595703125
0.0665,4.814697265625,-5.155029296875,-0.310302734375
0.067,4.854736328125,-4.154052734375,-1.271240234375
0.0675,5.175048828125,-3.833740234375,-1.951904296875
0.068,5.295166015625,-2.432373046875,-3.353271484375
0.0685,5.094970703125,-1.951904296875,-3.673583984375
0.069,4.694580078125,-0.790771484375,-4.394287109375
0.0695,4.093994140625,0.290283203125,-4.794677734375
0.07,3.213134765625,1.451416015625,-5.034912109375
0.0705,2.532470703125,2.452392578125,-5.315185546875
0.071,1.451416015625,3.653564453125,-5.435302734375
0.0715,0.810791015625,3.853759765625,-4.954833984375
0.072,-0.270263671875,4.654541015625,-4.674560546875
0.0725,-1.351318359375,4.774658203125,-3.793701171875
0.073,-2.192138671875,5.094970703125,-3.353271484375
0.0735,-3.593505859375,5.255126953125,-2.072021484375
0.074,-4.314208984375,5.295166015625,-1.351318359375
0.0745,-4.674560546875,4.614501953125,-0.390380859375
0.075,-5.275146484375,4.374267578125,0.490478515625
0.0755,-5.275146484375,3.373291015625,1.491455078125
0.076,-5.515380859375,2.932861328125,2.172119140625
0.0765,-5.635498046875,1.651611328125,3.493408203125
0.077,-5.275146484375,1.091064453125,3.693603515625
0.0775,-4.874755859375,0.010009765625,4.374267578125
0.078,-4.154052734375,-1.111083984375,4.694580078125
0.0785,-3.433349609375,-2.152099609375,4.934814453125
0.079,-2.592529296875,-3.153076171875,5.094970703125
0.0795,-1.751708984375,-4.154052734375,5.215087890625
0.08,-0.950927734375,-4.274169921875,4.494384765625
0.0805,0.010009765625,-5.074951171875,4.334228515625
0.081,1.051025390625,-5.155029296875,3.373291015625
0.0815,1.811767578125,-5.515380859375,2.932861328125
0.082,3.173095703125,-5.595458984375,1.771728515625
0.0825,3.653564453125,-5.435302734375,1.211181640625
0.083,4.013916015625,-4.834716796875,0.250244140625
0.0835,4.494384765625,-4.554443359375,-0.510498046875
0.084,4.614501953125,-3.713623046875,-1.431396484375
0.0845,4.774658203125,-3.193115234375,-2.112060546875
0.085,4.974853515625,-2.272216796875,-3.233154296875
0.0855,4.494384765625,-1.551513671875,-3.393310546875
0.086,4.254150390625,-0.590576171875,-4.154052734375
0.0865,3.373291015625,0.610595703125,-4.434326171875
0.087,2.932861328125,1.451416015625,-4.794677734375
0.0875,2.011962890625,2.572509765625,-4.914794921875
0.088,1.451416015625,3.253173828125,-5.074951171875
0.0885,0.490478515625,3.533447265625,-4.354248046875
0.089,-0.350341796875,4.214111328125,-4.234130859375
0.0895,-1.431396484375,4.334228515625,-3.353271484375
0.09,-2.192138671875,4.774658203125,-2.912841796875
0.0905,-3.513427734375,4.934814453125,-1.791748046875
0.091,-3.793701171875,4.614501953125,-1.231201171875
0.0915,-4.354248046875,4.134033203125,-0.270263671875
0.092,-4.674560546875,3.733642578125,0.530517578125
0.0925,-4.834716796875,3.052978515625,1.371337890625
0.093,-4.954833984375,2.332275390625,2.172119140625
0.0935,-5.155029296875,1.611572265625,3.052978515625
0.094,-4.514404296875,0.810791015625,3.213134765625
0.0945,-4.394287109375,-0.110107421875,3.973876953125
0.095,-3.473388671875,-1.231201171875,4.134033203125
0.0955,-3.153076171875,-1.951904296875,4.494384765625
0.096,-2.232177734375,-2.952880859375,4.534423828125
0.0965,-1.751708984375,-3.473388671875,4.494384765625
0.097,-0.790771484375,-3.833740234375,3.853759765625
0.0975,-0.070068359375,-4.354248046875,3.693603515625
0.098,0.890869140625,-4.514404296875,2.932861328125
0.0985,1.651611328125,-4.834716796875,2.532470703125
0.099,2.652587890625,-4.994873046875,1.691650390625
0.0995,2.812744140625,-4.554443359375,1.171142578125
0.1,3.413330078125,-4.434326171875,0.410400390625
0.1005,3.653564453125,-3.833740234375,-0.350341796875
0.101,3.973876953125,-3.513427734375,-1.071044921875
0.1015,4.093994140625,-2.752685546875,-1.831787109375
0.102,4.334228515625,-2.392333984375,-2.432373046875
0.1025,3.733642578125,-1.431396484375,-2.752685546875
0.103,3.733642578125,-0.750732421875,-3.473388671875
0.1035,2.852783203125,0.490478515625,-3.753662109375
0.104,2.732666015625,1.131103515625,-4.234130859375
0.1045,1.931884765625,2.052001953125,-4.434326171875
0.105,1.571533203125,2.372314453125,-4.274169921875
0.1055,0.610595703125,2.932861328125,-3.953857421875
0.106,-0.230224609375,3.493408203125,-3.593505859375
0.1065,-1.151123046875,3.853759765625,-3.072998046875
0.107,-1.951904296875,4.134033203125,-2.512451171875
0.1075,-2.832763671875,4.334228515625,-1.911865234375
0.108,-3.032958984375,3.813720703125,-1.191162109375
0.1085,-3.713623046875,3.853759765625,-0.590576171875
0.109,-3.873779296875,3.093017578125,0.370361328125
0.1095,-4.274169921875,2.852783203125,1.010986328125
0.11,-4.434326171875,2.092041015625,1.891845703125
0.1105,-4.474365234375,1.691650390625,2.292236328125
0.111,-3.913818359375,0.690673828125,2.732666015625
0.1115,-3.833740234375,0.010009765625,3.333251953125
0.112,-3.072998046875,-1.071044921875,3.573486328125
0.1125,-2.872802734375,-1.751708984375,3.933837890625
0.113,-2.192138671875,-2.592529296875,4.093994140625
0.1135,-1.631591796875,-2.752685546875,3.693603515625
0.114,-0.910888671875,-3.353271484375,3.653564453125
0.1145,-0.070068359375,-3.673583984375,3.133056640625
0.115,0.690673828125,-4.114013671875,2.812744140625
0.1155,1.531494140625,-4.314208984375,2.172119140625
0.116,2.052001953125,-4.434326171875,1.771728515625
0.1165,2.292236328125,-3.993896484375,1.091064453125
0.117,2.852783203125,-4.033935546875,0.610595703125
0.1175,3.133056640625,-3.393310546875,-0.270263671875
0.118,3.493408203125,-3.233154296875,-0.790771484375
0.1185,3.693603515625,-2.672607421875,-1.591552734375
0.119,3.573486328125,-2.272216796875,-1.871826171875
0.1195,3.413330078125,-1.351318359375,-2.552490234375
0.12,3.093017578125,-0.550537109375,-3.032958984375
0.1205,2.732666015625,0.290283203125,-3.553466796875
0.121,2.372314453125,0.970947265625,-3.833740234375
0.1215,2.052001953125,1.571533203125,-4.073974609375
0.122,1.331298828125,1.931884765625,-3.633544921875
0.1225,0.690673828125,2.692626953125,-3.753662109375
0.123,-0.310302734375,3.012939453125,-3.072998046875
0.1235,-0.990966796875,3.573486328125,-2.912841796875
0.124,-1.911865234375,3.773681640625,-2.232177734375
0.1245,-2.232177734375,3.773681640625,-1.951904296875
0.125,-2.752685546875,3.493408203125,-1.111083984375
0.1255,-3.193115234375,3.413330078125,-0.630615234375
0.126,-3.593505859375,2.852783203125,0.290283203125
0.1265,-3.913818359375,2.572509765625,0.890869140625
0.127,-4.194091796875,2.092041015625,1.611572265625
0.1275,-3.833740234375,1.451416015625,1.931884765625
0.128,-3.873779296875,0.690673828125,2.692626953125
0.1285,-3.273193359375,-0.310302734375,3.012939453125
0.129,-3.153076171875,-0.990966796875,3.533447265625
0.1295,-2.592529296875,-1.791748046875,3.693603515625
0.13,-2.232177734375,-2.192138671875,3.813720703125
0.1305,-1.431396484375,-2.592529296875,3.373291015625
0.131,-0.870849609375,-3.193115234375,3.453369140625
0.1315,0.090087890625,-3.553466796875,2.812744140625
0.132,0.770751953125,-3.993896484375,2.572509765625
0.1325,1.571533203125,-4.154052734375,1.971923828125
0.133,1.811767578125,-3.953857421875,1.571533203125
0.1335,2.412353515625,-3.913818359375,0.970947265625
0.134,2.692626953125,-3.553466796875,0.290283203125
0.1345,3.133056640625,-3.273193359375,-0.390380859375
0.135,3.373291015625,-2.872802734375,-1.031005859375
0.1355,3.613525390625,-2.552490234375,-1.631591796875
0.136,3.173095703125,-1.671630859375,-1.991943359375
0.1365,3.253173828125,-1.111083984375,-2.712646484375
0.137,2.612548828125,0.010009765625,-3.072998046875
0.1375,2.572509765625,0.530517578125,-3.593505859375
0.138,2.052001953125,1.411376953125,-3.793701171875
0.1385,1.611572265625,1.691650390625,-3.713623046875
0.139,0.850830078125,2.252197265625,-3.513427734375
0.1395,0.130126953125,2.812744140625,-3.273193359375
0.14,-0.750732421875,3.173095703125,-2.832763671875
0.1405,-1.511474609375,3.573486328125,-2.472412109375
0.141,-2.232177734375,3.773681640625,-1.951904296875
0.1415,-2.472412109375,3.373291015625,-1.311279296875
0.142,-3.153076171875,3.493408203125,-0.750732421875
0.1425,-3.393310546875,2.892822265625,0.130126953125
0.143,-3.833740234375,2.692626953125,0.730712890625
0.1435,-4.033935546875,2.092041015625,1.491455078125
0.144,-4.114013671875,1.651611328125,1.931884765625
0.1445,-3.593505859375,0.650634765625,2.412353515625
0.145,-3.593505859375,0.010009765625,3.052978515625
0.1455,-2.912841796875,-1.031005859375,3.333251953125
0.146,-2.792724609375,-1.591552734375,3.853759765625
0.1465,-2.112060546875,-2.432373046875,3.853759765625
0.147,-1.471435546875,-2.712646484375,3.533447265625
0.1475,-0.790771484375,-3.273193359375,3.493408203125
0.148,0.130126953125,-3.673583984375,2.932861328125
0.1485,0.930908203125,-4.033935546875,2.532470703125
0.149,1.651611328125,-4.274169921875,1.971923828125
0.1495,2.252197265625,-4.314208984375,1.451416015625
0.15,2.532470703125,-3.833740234375,0.730712890625
0.1505,3.093017578125,-3.873779296875,0.290283203125
0.151,3.253173828125,-3.193115234375,-0.630615234375
0.1515,3.613525390625,-2.912841796875,-1.271240234375
0.152,3.773681640625,-2.272216796875,-2.031982421875
0.1525,3.493408203125,-1.631591796875,-2.432373046875
0.153,3.173095703125,-0.710693359375,-2.992919921875
0.1535,2.852783203125,0.130126953125,-3.473388671875
0.154,2.252197265625,1.051025390625,-3.713623046875
0.1545,1.971923828125,1.651611328125,-4.033935546875
0.155,1.291259765625,2.372314453125,-4.033935546875
0.1555,0.490478515625,2.652587890625,-3.553466796875
0.156,-0.110107421875,3.333251953125,-3.553466796875
0.1565,-1.231201171875,3.573486328125,-2.712646484375
0.157,-1.951904296875,3.933837890625,-2.352294921875
0.1575,-2.712646484375,3.973876953125,-1.631591796875
0.158,-3.233154296875,3.853759765625,-1.031005859375
0.1585,-3.553466796875,3.333251953125,-0.270263671875
0.159,-3.993896484375,3.213134765625,0.330322265625
0.1595,-4.194091796875,2.412353515625,1.331298828125
0.16,-4.394287109375,2.052001953125,1.851806640625
0.1605,-4.474365234375,1.251220703125,2.692626953125
0.161,-3.913818359375,0.330322265625,3.012939453125
0.1615,-3.713623046875,-0.510498046875,3.573486328125
0.162,-3.072998046875,-1.431396484375,3.893798828125
0.1625,-2.472412109375,-2.312255859375,4.174072265625
0.163,-1.951904296875,-2.872802734375,4.174072265625
0.1635,-1.191162109375,-3.553466796875,4.093994140625
0.164,-0.310302734375,-3.793701171875,3.453369140625
0.1645,0.410400390625,-4.434326171875,3.373291015625
0.165,1.771728515625,-4.634521484375,2.252197265625
0.1655,2.292236328125,-4.834716796875,1.931884765625
0.166,3.052978515625,-4.714599609375,1.091064453125
0.1665,3.413330078125,-4.354248046875,0.370361328125
0.167,3.693603515625,-3.913818359375,-0.350341796875
0.1675,4.093994140625,-3.513427734375,-1.151123046875
0.168,4.254150390625,-2.592529296875,-2.192138671875
0.1685,4.174072265625,-2.192138671875,-2.592529296875
0.169,4.174072265625,-1.351318359375,-3.353271484375
0.1695,3.413330078125,-0.310302734375,-3.673583984375
0.17,3.173095703125,0.610595703125,-4.194091796875
0.1705,2.212158203125,1.851806640625,-4.434326171875
0.171,1.651611328125,2.572509765625,-4.634521484375
0.1715,0.970947265625,3.093017578125,-4.434326171875
0.172,0.130126953125,3.733642578125,-4.194091796875
0.1725,-0.830810546875,3.933837890625,-3.433349609375
0.173,-1.631591796875,4.494384765625,-3.193115234375
0.1735,-3.072998046875,4.614501953125,-1.951904296875
0.174,-3.513427734375,4.574462890625,-1.471435546875
0.1745,-4.194091796875,4.334228515625,-0.550537109375
0.175,-4.514404296875,3.813720703125,0.250244140625
0.1755,-4.714599609375,3.293212890625,1.051025390625
0.176,-4.994873046875,2.572509765625,1.931884765625
0.1765,-5.155029296875,1.651611328125,2.932861328125
0.177,-4.794677734375,0.970947265625,3.253173828125
0.1775,-4.714599609375,0.090087890625,4.013916015625
0.178,-3.753662109375,-1.031005859375,4.214111328125
0.1785,-3.473388671875,-1.871826171875,4.654541015625
0.179,-2.272216796875,-3.153076171875,4.814697265625
0.1795,-1.751708984375,-3.833740234375,4.854736328125
0.18,-0.790771484375,-4.234130859375,4.334228515625
0.1805,0.050048828125,-4.834716796875,4.093994140625
0.181,1.051025390625,-4.954833984375,3.253173828125
0.1815,1.931884765625,-5.395263671875,2.812744140625
0.182,3.333251953125,-5.515380859375,1.571533203125
0.1825,3.653564453125,-5.235107421875,0.970947265625
0.183,4.294189453125,-4.914794921875,0.050048828125
0.1835,4.494384765625,-4.314208984375,-0.790771484375
0.184,4.734619140625,-3.753662109375,-1.551513671875
0.1845,4.934814453125,-2.872802734375,-2.592529296875
0.185,5.094970703125,-2.072021484375,-3.593505859375
0.1855,4.494384765625,-1.191162109375,-3.873779296875
0.186,4.334228515625,-0.190185546875,-4.594482421875
0.1865,3.213134765625,1.091064453125,-4.714599609375
0.187,2.852783203125,1.931884765625,-5.114990234375
0.1875,1.571533203125,3.293212890625,-5.195068359375
0.188,1.010986328125,3.853759765625,-5.114990234375
