wavelength,x,y,z
0.0,1.171142578125,5.775634765625,-5.955810546875
0.0005,2.172119140625,4.974853515625,-6.356201171875
0.001,3.453369140625,3.733642578125,-6.596435546875
0.0015,4.614501953125,2.292236328125,-6.716552734375
0.002,5.375244140625,1.131103515625,-6.556396484375
0.0025,5.735595703125,0.370361328125,-6.476318359375
0.003,5.655517578125,-0.510498046875,-5.955810546875
0.0035,5.415283203125,-1.551513671875,-4.954833984375
0.004,5.255126953125,-2.832763671875,-3.793701171875
0.0045,4.974853515625,-4.114013671875,-2.472412109375
0.005,4.694580078125,-5.074951171875,-1.431396484375
0.0055,4.334228515625,-5.675537109375,-0.670654296875
0.006,3.573486328125,-5.875732421875,0.290283203125
0.0065,2.412353515625,-6.075927734375,1.531494140625
0.007,1.010986328125,-6.276123046875,3.093017578125
0.0075,-0.150146484375,-6.316162109375,4.214111328125
0.008,-0.830810546875,-6.476318359375,5.135009765625
0.0085,-1.591552734375,-6.276123046875,5.735595703125
0.009,-2.752685546875,-5.315185546875,6.095947265625
0.0095,-3.993896484375,-4.114013671875,6.376220703125
0.01,-5.074951171875,-2.712646484375,6.416259765625
0.0105,-5.715576171875,-1.671630859375,6.336181640625
0.011,-5.915771484375,-0.990966796875,6.135986328125
0.0115,-5.755615234375,0.010009765625,5.495361328125
0.012,-5.595458984375,1.010986328125,4.494384765625
0.0125,-5.435302734375,2.372314453125,3.293212890625
0.013,-5.155029296875,3.533447265625,2.092041015625
0.0135,-4.954833984375,4.414306640625,1.211181640625
0.014,-4.514404296875,4.814697265625,0.490478515625
0.0145,-3.553466796875,5.054931640625,-0.590576171875
0.015,-2.432373046875,5.335205078125,-1.951904296875
0.0155,-1.151123046875,5.455322265625,-3.393310546875
0.016,-0.270263671875,5.615478515625,-4.434326171875
0.0165,0.490478515625,5.735595703125,-5.235107421875
0.017,1.291259765625,5.255126953125,-5.755615234375
0.0175,2.492431640625,4.254150390625,-6.115966796875
0.018,3.733642578125,3.052978515625,-6.396240234375
0.0185,4.654541015625,1.811767578125,-6.356201171875
0.019,5.215087890625,0.930908203125,-6.316162109375
0.0195,5.335205078125,0.250244140625,-6.075927734375
0.02,5.135009765625,-0.670654296875,-5.355224609375
0.0205,5.014892578125,-1.791748046875,-4.394287109375
0.021,4.854736328125,-3.072998046875,-3.193115234375
0.0215,4.654541015625,-4.154052734375,-2.112060546875
0.022,4.494384765625,-4.954833984375,-1.351318359375
0.0225,3.973876953125,-5.315185546875,-0.630615234375
0.023,3.052978515625,-5.515380859375,0.530517578125
0.0235,1.931884765625,-5.915771484375,1.931884765625
0.024,0.770751953125,-6.035888671875,3.173095703125
0.0245,0.010009765625,-6.276123046875,4.214111328125
0.025,-0.790771484375,-6.356201171875,4.974853515625
0.0255,-1.711669921875,-5.835693359375,5.455322265625
0.026,-2.912841796875,-4.754638671875,5.855712890625
0.0265,-4.114013671875,-3.553466796875,6.095947265625
0.027,-4.954833984375,-2.392333984375,6.055908203125
0.0275,-5.435302734375,-1.671630859375,6.095947265625
0.028,-5.475341796875,-0.990966796875,5.735595703125
0.0285,-5.355224609375,0.050048828125,5.014892578125
0.029,-5.275146484375,1.211181640625,4.093994140625
0.0295,-5.114990234375,2.452392578125,2.892822265625
0.03,-4.994873046875,3.453369140625,1.971923828125
0.0305,-4.754638671875,4.134033203125,1.251220703125
0.031,-4.154052734375,4.534423828125,0.450439453125
0.0315,-3.193115234375,4.814697265625,-0.830810546875
0.032,-2.112060546875,5.094970703125,-2.192138671875
0.0325,-1.071044921875,5.255126953125,-3.393310546875
0.033,-0.390380859375,5.575439453125,-4.354248046875
0.0335,0.410400390625,5.455322265625,-5.074951171875
0.034,1.411376953125,4.814697265625,-5.435302734375
0.0345,2.612548828125,3.813720703125,-5.835693359375
0.035,3.773681640625,2.572509765625,-6.035888671875
0.0355,4.494384765625,1.611572265625,-6.075927734375
0.036,4.854736328125,0.970947265625,-6.035888671875
0.0365,4.894775390625,0.250244140625,-5.675537109375
0.037,4.814697265625,-0.790771484375,-4.874755859375
0.0375,4.774658203125,-1.951904296875,-3.913818359375
0.038,4.614501953125,-3.153076171875,-2.872802734375
0.0385,4.574462890625,-4.073974609375,-2.072021484375
0.039,4.294189453125,-4.674560546875,-1.351318359375
0.0395,3.653564453125,-5.034912109375,-0.510498046875
0.04,2.692626953125,-5.395263671875,0.770751953125
0.0405,1.571533203125,-5.715576171875,2.132080078125
0.041,0.730712890625,-5.955810546875,3.173095703125
0.0415,0.050048828125,-6.276123046875,4.134033203125
0.042,-0.830810546875,-6.035888671875,4.814697265625
0.0425,-1.911865234375,-5.275146484375,5.255126953125
0.043,-3.153076171875,-4.234130859375,5.695556640625
0.0435,-4.154052734375,-3.113037109375,5.775634765625
0.044,-4.834716796875,-2.272216796875,5.935791015625
0.0445,-5.114990234375,-1.631591796875,5.855712890625
0.045,-5.155029296875,-0.830810546875,5.375244140625
0.0455,-5.155029296875,0.250244140625,4.614501953125
0.046,-5.114990234375,1.491455078125,3.613525390625
0.0465,-4.994873046875,2.612548828125,2.652587890625
0.047,-4.954833984375,3.493408203125,1.891845703125
0.0475,-4.514404296875,4.053955078125,1.131103515625
0.048,-3.753662109375,4.414306640625,0.130126953125
0.0485,-2.832763671875,4.814697265625,-1.271240234375
0.049,-1.791748046875,5.094970703125,-2.592529296875
0.0495,-1.031005859375,5.375244140625,-3.633544921875
0.05,-0.310302734375,5.575439453125,-4.514404296875
0.0505,0.690673828125,5.215087890625,-5.074951171875
0.051,1.931884765625,4.334228515625,-5.515380859375
0.0515,3.173095703125,3.173095703125,-5.835693359375
0.052,4.093994140625,2.092041015625,-5.955810546875
0.0525,4.654541015625,1.331298828125,-6.115966796875
0.053,4.814697265625,0.650634765625,-5.875732421875
0.0535,4.774658203125,-0.350341796875,-5.155029296875
0.054,4.814697265625,-1.431396484375,-4.354248046875
0.0545,4.734619140625,-2.712646484375,-3.273193359375
0.055,4.614501953125,-3.713623046875,-2.352294921875
0.0555,4.494384765625,-4.514404296875,-1.631591796875
0.056,3.933837890625,-4.914794921875,-0.830810546875
0.0565,3.012939453125,-5.275146484375,0.410400390625
0.057,1.931884765625,-5.715576171875,1.771728515625
0.0575,0.930908203125,-5.915771484375,2.972900390625
0.058,0.250244140625,-6.196044921875,4.013916015625
0.0585,-0.630615234375,-6.115966796875,4.774658203125
0.059,-1.671630859375,-5.435302734375,5.255126953125
0.0595,-2.912841796875,-4.474365234375,5.695556640625
0.06,-4.114013671875,-3.233154296875,5.895751953125
0.0605,-4.874755859375,-2.272216796875,5.935791015625
0.061,-5.235107421875,-1.591552734375,5.895751953125
0.0615,-5.275146484375,-0.830810546875,5.455322265625
0.062,-5.155029296875,0.250244140625,4.694580078125
0.0625,-5.155029296875,1.531494140625,3.693603515625
0.063,-5.034912109375,2.692626953125,2.572509765625
0.0635,-4.914794921875,3.653564453125,1.771728515625
0.064,-4.554443359375,4.214111328125,1.010986328125
0.0645,-3.833740234375,4.494384765625,0.050048828125
0.065,-2.832763671875,4.814697265625,-1.311279296875
0.0655,-1.711669921875,5.094970703125,-2.712646484375
0.066,-0.830810546875,5.415283203125,-3.753662109375
0.0665,-0.150146484375,5.615478515625,-4.674560546875
0.067,0.770751953125,5.295166015625,-5.275146484375
0.0675,1.971923828125,4.414306640625,-5.715576171875
0.068,3.213134765625,3.213134765625,-6.035888671875
0.0685,4.214111328125,2.011962890625,-6.115966796875
0.069,4.814697265625,1.211181640625,-6.156005859375
0.0695,5.054931640625,0.490478515625,-5.915771484375
0.07,4.974853515625,-0.470458984375,-5.315185546875
0.0705,4.854736328125,-1.551513671875,-4.354248046875
0.071,4.814697265625,-2.872802734375,-3.233154296875
0.0715,4.614501953125,-3.953857421875,-2.232177734375
0.072,4.494384765625,-4.794677734375,-1.471435546875
0.0725,3.973876953125,-5.195068359375,-0.670654296875
0.073,3.052978515625,-5.435302734375,0.450439453125
0.0735,1.931884765625,-5.835693359375,1.851806640625
0.074,0.810791015625,-5.955810546875,3.173095703125
0.0745,0.050048828125,-6.236083984375,4.134033203125
0.075,-0.710693359375,-6.276123046875,4.974853515625
0.0755,-1.711669921875,-5.715576171875,5.455322265625
0.076,-2.992919921875,-4.634521484375,5.855712890625
0.0765,-4.234130859375,-3.353271484375,6.095947265625
0.077,-5.074951171875,-2.232177734375,6.095947265625
0.0775,-5.515380859375,-1.471435546875,6.135986328125
0.078,-5.555419921875,-0.750732421875,5.695556640625
0.0785,-5.395263671875,0.330322265625,4.854736328125
0.079,-5.315185546875,1.571533203125,3.853759765625
0.0795,-5.155029296875,2.852783203125,2.612548828125
0.08,-4.994873046875,3.813720703125,1.651611328125
0.0805,-4.714599609375,4.494384765625,0.930908203125
0.081,-3.993896484375,4.774658203125,0.050048828125
0.0815,-2.872802734375,4.974853515625,-1.311279296875
0.082,-1.711669921875,5.375244140625,-2.792724609375
0.0825,-0.670654296875,5.495361328125,-3.993896484375
0.083,0.130126953125,5.735595703125,-4.914794921875
0.0835,0.930908203125,5.535400390625,-5.595458984375
0.084,2.052001953125,4.614501953125,-5.955810546875
0.0845,3.373291015625,3.373291015625,-6.356201171875
0.085,4.494384765625,2.052001953125,-6.396240234375
0.0855,5.175048828125,1.051025390625,-6.396240234375
0.086,5.455322265625,0.290283203125,-6.236083984375
0.0865,5.375244140625,-0.630615234375,-5.635498046875
0.087,5.135009765625,-1.791748046875,-4.514404296875
0.0875,5.094970703125,-3.193115234375,-3.313232421875
0.088,4.814697265625,-4.354248046875,-2.112060546875
0.0885,4.614501953125,-5.275146484375,-1.271240234375
0.089,4.134033203125,-5.755615234375,-0.470458984375
0.0895,3.093017578125,-5.915771484375,0.690673828125
0.09,1.851806640625,-6.115966796875,2.212158203125
0.0905,0.530517578125,-6.276123046875,3.693603515625
0.091,-0.470458984375,-6.396240234375,4.734619140625
0.0915,-1.151123046875,-6.476318359375,5.575439453125
0.092,-2.112060546875,-5.915771484375,6.055908203125
0.0925,-3.473388671875,-4.674560546875,6.416259765625
0.093,-4.794677734375,-3.313232421875,6.656494140625
0.0935,-5.715576171875,-1.951904296875,6.536376953125
0.094,-6.115966796875,-1.031005859375,6.416259765625
0.0945,-6.115966796875,-0.270263671875,5.935791015625
0.095,-5.915771484375,0.890869140625,5.014892578125
0.0955,-5.675537109375,2.212158203125,3.733642578125
0.096,-5.435302734375,3.573486328125,2.372314453125
0.0965,-5.114990234375,4.534423828125,1.251220703125
0.097,-4.794677734375,5.175048828125,0.410400390625
0.0975,-3.993896484375,5.415283203125,-0.590576171875
0.098,-2.672607421875,5.535400390625,-1.871826171875
0.0985,-1.311279296875,5.775634765625,-3.473388671875
0.099,0.010009765625,5.815673828125,-4.754638671875
0.0995,0.770751953125,5.895751953125,-5.595458984375
0.1,1.451416015625,5.695556640625,-6.236083984375
0.1005,2.572509765625,4.774658203125,-6.596435546875
0.101,3.933837890625,3.333251953125,-6.836669921875
0.1015,5.094970703125,1.891845703125,-6.876708984375
0.102,5.735595703125,0.650634765625,-6.676513671875
0.1025,6.015869140625,-0.230224609375,-6.436279296875
0.103,5.815673828125,-1.031005859375,-5.755615234375
0.1035,5.495361328125,-2.192138671875,-4.634521484375
0.104,5.255126953125,-3.553466796875,-3.273193359375
0.1045,4.974853515625,-4.834716796875,-1.951904296875
0.105,4.614501953125,-5.715576171875,-0.950927734375
0.1055,4.134033203125,-6.196044921875,-0.190185546875
0.106,3.213134765625,-6.276123046875,0.850830078125
0.1065,1.891845703125,-6.356201171875,2.252197265625
0.107,0.450439453125,-6.476318359375,3.853759765625
0.1075,-0.710693359375,-6.476318359375,4.934814453125
0.108,-1.351318359375,-6.596435546875,5.775634765625
0.1085,-2.192138671875,-6.156005859375,6.336181640625
0.109,-3.393310546875,-5.034912109375,6.576416015625
0.1095,-4.674560546875,-3.673583984375,6.776611328125
0.11,-5.755615234375,-2.272216796875,6.736572265625
0.1105,-6.276123046875,-1.151123046875,6.536376953125
0.111,-6.396240234375,-0.350341796875,6.256103515625
0.1115,-6.156005859375,0.610595703125,5.455322265625
0.112,-5.835693359375,1.771728515625,4.254150390625
0.1125,-5.635498046875,3.173095703125,2.852783203125
0.113,-5.275146484375,4.334228515625,1.571533203125
0.1135,-4.994873046875,5.094970703125,0.650634765625
0.114,-4.354248046875,5.495361328125,-0.270263671875
0.1145,-3.233154296875,5.615478515625,-1.311279296875
0.115,-1.911865234375,5.775634765625,-2.832763671875
0.1155,-0.510498046875,5.895751953125,-4.354248046875
0.116,0.490478515625,5.895751953125,-5.315185546875
0.1165,1.171142578125,5.935791015625,-6.115966796875
0.117,2.092041015625,5.295166015625,-6.516357421875
0.1175,3.453369140625,3.973876953125,-6.756591796875
0.118,4.694580078125,2.572509765625,-6.956787109375
0.1185,5.575439453125,1.211181640625,-6.796630859375
0.119,6.015869140625,0.290283203125,-6.596435546875
0.1195,5.975830078125,-0.630615234375,-6.196044921875
0.12,5.695556640625,-1.591552734375,-5.275146484375
0.1205,5.415283203125,-2.912841796875,-3.953857421875
0.121,5.175048828125,-4.354248046875,-2.552490234375
0.1215,4.814697265625,-5.395263671875,-1.391357421875
0.122,4.494384765625,-6.035888671875,-0.590576171875
0.1225,3.733642578125,-6.236083984375,0.370361328125
0.123,2.492431640625,-6.356201171875,1.611572265625
0.1235,1.051025390625,-6.516357421875,3.213134765625
0.124,-0.310302734375,-6.556396484375,4.534423828125
0.1245,-1.151123046875,-6.596435546875,5.495361328125
0.125,-1.791748046875,-6.476318359375,6.135986328125
0.1255,-2.872802734375,-5.635498046875,6.536376953125
0.126,-4.234130859375,-4.234130859375,6.776611328125
0.1265,-5.475341796875,-2.752685546875,6.896728515625
0.127,-6.156005859375,-1.471435546875,6.656494140625
0.1275,-6.436279296875,-0.630615234375,6.496337890625
0.128,-6.356201171875,0.290283203125,5.815673828125
0.1285,-6.035888671875,1.331298828125,4.694580078125
0.129,-5.755615234375,2.732666015625,3.333251953125
0.1295,-5.475341796875,4.093994140625,1.931884765625
0.13,-5.114990234375,5.054931640625,0.890869140625
0.1305,-4.634521484375,5.575439453125,0.090087890625
0.131,-3.713623046875,5.735595703125,-0.990966796875
0.1315,-2.272216796875,5.815673828125,-2.432373046875
0.132,-0.870849609375,6.015869140625,-4.033935546875
0.1325,0.370361328125,5.975830078125,-5.195068359375
0.133,1.051025390625,6.055908203125,-6.075927734375
0.1335,1.891845703125,5.615478515625,-6.556396484375
0.134,3.133056640625,4.494384765625,-6.876708984375
0.1345,4.494384765625,3.012939453125,-7.076904296875
0.135,5.535400390625,1.531494140625,-6.996826171875
0.1355,6.055908203125,0.370361328125,-6.756591796875
0.136,6.176025390625,-0.510498046875,-6.436279296875
0.1365,5.895751953125,-1.431396484375,-5.635498046875
0.137,5.575439453125,-2.672607421875,-4.314208984375
0.1375,5.295166015625,-4.154052734375,-2.872802734375
0.138,4.974853515625,-5.235107421875,-1.551513671875
0.1385,4.574462890625,-5.995849609375,-0.630615234375
0.139,3.973876953125,-6.356201171875,0.290283203125
0.1395,2.852783203125,-6.396240234375,1.291259765625
0.14,1.411376953125,-6.516357421875,2.852783203125
0.1405,0.010009765625,-6.556396484375,4.334228515625
0.141,-1.071044921875,-6.556396484375,5.335205078125
0.1415,-1.671630859375,-6.556396484375,6.095947265625
0.142,-2.592529296875,-5.915771484375,6.456298828125
0.1425,-3.873779296875,-4.634521484375,6.696533203125
0.143,-5.114990234375,-3.193115234375,6.856689453125
0.1435,-5.955810546875,-1.791748046875,6.696533203125
0.144,-6.396240234375,-0.910888671875,6.496337890625
0.1445,-6.356201171875,0.010009765625,6.055908203125
0.145,-6.035888671875,0.810791015625,5.135009765625
0.1455,-5.755615234375,2.052001953125,3.853759765625
0.146,-5.475341796875,3.533447265625,2.492431640625
0.1465,-5.114990234375,4.494384765625,1.291259765625
0.147,-4.834716796875,5.255126953125,0.490478515625
0.1475,-4.033935546875,5.455322265625,-0.470458984375
0.148,-2.872802734375,5.535400390625,-1.591552734375
0.1485,-1.591552734375,5.775634765625,-3.072998046875
0.149,-0.270263671875,5.735595703125,-4.434326171875
0.1495,0.610595703125,5.855712890625,-5.395263671875
0.15,1.251220703125,5.775634765625,-6.075927734375
0.1505,2.212158203125,5.094970703125,-6.396240234375
0.151,3.493408203125,3.773681640625,-6.676513671875
0.1515,4.694580078125,2.372314453125,-6.756591796875
0.152,5.455322265625,1.131103515625,-6.596435546875
0.1525,5.815673828125,0.290283203125,-6.476318359375
0.153,5.735595703125,-0.590576171875,-6.035888671875
0.1535,5.415283203125,-1.591552734375,-5.034912109375
0.154,5.255126953125,-2.832763671875,-3.833740234375
0.1545,5.014892578125,-4.154052734375,-2.512451171875
0.155,4.694580078125,-5.114990234375,-1.471435546875
0.1555,4.414306640625,-5.755615234375,-0.670654296875
0.156,3.653564453125,-5.955810546875,0.290283203125
0.1565,2.412353515625,-6.115966796875,1.531494140625
0.157,1.051025390625,-6.316162109375,3.093017578125
0.1575,-0.190185546875,-6.356201171875,4.294189453125
0.158,-0.910888671875,-6.556396484375,5.215087890625
0.1585,-1.591552734375,-6.316162109375,5.815673828125
0.159,-2.712646484375,-5.355224609375,6.135986328125
0.1595,-3.993896484375,-4.154052734375,6.456298828125
0.16,-5.114990234375,-2.712646484375,6.496337890625
0.1605,-5.755615234375,-1.671630859375,6.376220703125
0.161,-6.035888671875,-0.950927734375,6.216064453125
0.1615,-5.875732421875,0.010009765625,5.575439453125
0.162,-5.635498046875,1.051025390625,4.534423828125
0.1625,-5.435302734375,2.412353515625,3.333251953125
0.163,-5.155029296875,3.573486328125,2.092041015625
0.1635,-4.954833984375,4.494384765625,1.211181640625
0.164,-4.514404296875,4.934814453125,0.450439453125
0.1645,-3.593505859375,5.094970703125,-0.630615234375
0.165,-2.432373046875,5.375244140625,-1.951904296875
0.1655,-1.151123046875,5.495361328125,-3.393310546875
0.166,-0.230224609375,5.615478515625,-4.434326171875
0.1665,0.530517578125,5.735595703125,-5.315185546875
0.167,1.371337890625,5.335205078125,-5.795654296875
0.1675,2.532470703125,4.334228515625,-6.115966796875
0.168,3.733642578125,3.093017578125,-6.396240234375
0.1685,4.654541015625,1.771728515625,-6.356201171875
0.169,5.215087890625,0.890869140625,-6.316162109375
0.1695,5.375244140625,0.250244140625,-6.075927734375
0.17,5.215087890625,-0.670654296875,-5.435302734375
0.1705,4.974853515625,-1.711669921875,-4.434326171875
0.171,4.854736328125,-3.072998046875,-3.193115234375
0.1715,4.614501953125,-4.154052734375,-2.112060546875
0.172,4.494384765625,-4.914794921875,-1.351318359375
0.1725,3.933837890625,-5.315185546875,-0.590576171875
0.173,3.052978515625,-5.555419921875,0.490478515625
0.1735,1.931884765625,-5.835693359375,1.851806640625
0.174,0.770751953125,-5.955810546875,3.133056640625
0.1745,0.010009765625,-6.156005859375,4.134033203125
0.175,-0.750732421875,-6.316162109375,4.974853515625
0.1755,-1.591552734375,-5.795654296875,5.415283203125
0.176,-2.792724609375,-4.834716796875,5.775634765625
0.1765,-4.033935546875,-3.673583984375,6.055908203125
0.177,-4.874755859375,-2.512451171875,6.055908203125
0.1775,-5.435302734375,-1.711669921875,6.095947265625
0.178,-5.475341796875,-0.990966796875,5.775634765625
0.1785,-5.395263671875,-0.150146484375,5.094970703125
0.179,-5.275146484375,1.091064453125,4.174072265625
0.1795,-5.155029296875,2.292236328125,3.012939453125
0.18,-4.994873046875,3.333251953125,2.052001953125
0.1805,-4.834716796875,4.134033203125,1.291259765625
0.181,-4.234130859375,4.494384765625,0.490478515625
0.1815,-3.273193359375,4.774658203125,-0.670654296875
0.182,-2.192138671875,5.094970703125,-2.072021484375
0.1825,-1.151123046875,5.255126953125,-3.273193359375
0.183,-0.470458984375,5.575439453125,-4.314208984375
0.1835,0.410400390625,5.535400390625,-5.034912109375
0.184,1.371337890625,4.854736328125,-5.475341796875
0.1845,2.572509765625,3.853759765625,-5.835693359375
0.185,3.693603515625,2.612548828125,-6.035888671875
0.1855,4.494384765625,1.611572265625,-6.075927734375
0.186,4.934814453125,0.970947265625,-6.115966796875
0.1865,4.974853515625,0.250244140625,-5.715576171875
0.187,4.814697265625,-0.790771484375,-4.914794921875
0.1875,4.814697265625,-1.951904296875,-3.953857421875
0.188,4.654541015625,-3.153076171875,-2.872802734375
