wavelength,x,y,z
0.0,0.50048828125,2.58251953125,-3.42333984375
0.0005,-0.14013671875,3.06298828125,-3.38330078125
0.001,-0.98095703125,3.22314453125,-2.78271484375
0.0015,-1.58154296875,3.58349609375,-2.54248046875
0.002,-2.06201171875,3.54345703125,-1.94189453125
0.0025,-2.54248046875,3.54345703125,-1.46142578125
0.003,-2.82275390625,3.18310546875,-0.78076171875
0.0035,-3.22314453125,2.90283203125,-0.14013671875
0.004,-3.38330078125,2.22216796875,0.82080078125
0.0045,-3.66357421875,1.86181640625,1.42138671875
0.005,-3.58349609375,1.14111328125,2.06201171875
0.0055,-3.46337890625,0.62060546875,2.54248046875
0.006,-3.34326171875,-0.14013671875,3.06298828125
0.0065,-2.86279296875,-0.90087890625,3.34326171875
0.007,-2.42236328125,-1.62158203125,3.66357421875
0.0075,-1.74169921875,-2.18212890625,3.54345703125
0.008,-1.14111328125,-2.82275390625,3.58349609375
0.0085,-0.34033203125,-3.26318359375,3.18310546875
0.009,0.26025390625,-3.74365234375,3.18310546875
0.0095,1.10107421875,-3.86376953125,2.54248046875
0.01,1.58154296875,-4.14404296875,2.30224609375
0.0105,2.10205078125,-4.02392578125,1.66162109375
0.011,2.46240234375,-3.90380859375,1.22119140625
0.0115,2.86279296875,-3.66357421875,0.54052734375
0.012,3.06298828125,-3.18310546875,-0.22021484375
0.0125,3.34326171875,-2.62255859375,-1.02099609375
0.013,3.42333984375,-2.18212890625,-1.58154296875
0.0135,3.50341796875,-1.58154296875,-2.22216796875
0.014,3.18310546875,-0.90087890625,-2.62255859375
0.0145,3.18310546875,-0.34033203125,-3.18310546875
0.015,2.54248046875,0.58056640625,-3.38330078125
0.0155,2.18212890625,1.22119140625,-3.78369140625
0.016,1.42138671875,1.82177734375,-3.58349609375
0.0165,0.82080078125,2.34228515625,-3.58349609375
0.017,0.10009765625,2.78271484375,-3.26318359375
0.0175,-0.50048828125,3.18310546875,-3.06298828125
0.018,-1.34130859375,3.46337890625,-2.54248046875
0.0185,-1.78173828125,3.54345703125,-2.18212890625
0.019,-2.38232421875,3.54345703125,-1.62158203125
0.0195,-2.62255859375,3.22314453125,-1.02099609375
0.02,-3.10302734375,3.02294921875,-0.38037109375
0.0205,-3.22314453125,2.34228515625,0.50048828125
0.021,-3.58349609375,1.98193359375,1.22119140625
0.0215,-3.46337890625,1.30126953125,1.78173828125
0.022,-3.54345703125,0.90087890625,2.30224609375
0.0225,-3.18310546875,0.14013671875,2.74267578125
0.023,-3.10302734375,-0.50048828125,3.18310546875
0.0235,-2.50244140625,-1.30126953125,3.46337890625
0.024,-1.98193359375,-1.94189453125,3.54345703125
0.0245,-1.30126953125,-2.58251953125,3.50341796875
0.025,-0.62060546875,-3.06298828125,3.30322265625
0.0255,0.06005859375,-3.50341796875,3.14306640625
0.026,0.78076171875,-3.70361328125,2.70263671875
0.0265,1.42138671875,-4.02392578125,2.34228515625
0.027,1.78173828125,-3.94384765625,1.86181640625
0.0275,2.34228515625,-4.02392578125,1.46142578125
0.028,2.58251953125,-3.58349609375,0.70068359375
0.0285,3.06298828125,-3.46337890625,0.18017578125
0.029,3.18310546875,-2.70263671875,-0.78076171875
0.0295,3.46337890625,-2.42236328125,-1.34130859375
0.03,3.30322265625,-1.66162109375,-1.94189453125
0.0305,3.34326171875,-1.26123046875,-2.42236328125
0.031,3.06298828125,-0.50048828125,-2.94287109375
0.0315,2.78271484375,0.18017578125,-3.26318359375
0.032,2.30224609375,1.02099609375,-3.66357421875
0.0325,1.66162109375,1.54150390625,-3.58349609375
0.033,1.02099609375,2.18212890625,-3.66357421875
0.0335,0.34033203125,2.66259765625,-3.34326171875
0.034,-0.30029296875,3.14306640625,-3.26318359375
0.0345,-1.14111328125,3.34326171875,-2.62255859375
0.035,-1.74169921875,3.62353515625,-2.34228515625
0.0355,-2.18212890625,3.46337890625,-1.74169921875
0.036,-2.62255859375,3.50341796875,-1.30126953125
0.0365,-2.94287109375,3.02294921875,-0.50048828125
0.037,-3.30322265625,2.70263671875,0.22021484375
0.0375,-3.54345703125,1.94189453125,1.14111328125
0.038,-3.62353515625,1.54150390625,1.70166015625
0.0385,-3.54345703125,0.86083984375,2.34228515625
0.039,-3.38330078125,0.26025390625,2.74267578125
0.0395,-3.18310546875,-0.50048828125,3.22314453125
0.04,-2.54248046875,-1.26123046875,3.34326171875
0.0405,-2.10205078125,-2.06201171875,3.78369140625
0.041,-1.34130859375,-2.54248046875,3.50341796875
0.0415,-0.70068359375,-3.18310546875,3.54345703125
0.042,0.10009765625,-3.50341796875,3.10302734375
0.0425,0.66064453125,-3.86376953125,2.90283203125
0.043,1.58154296875,-4.10400390625,2.26220703125
0.0435,2.06201171875,-4.18408203125,1.86181640625
0.044,2.54248046875,-4.02392578125,1.26123046875
0.0445,2.86279296875,-3.86376953125,0.70068359375
0.045,3.18310546875,-3.38330078125,0.02001953125
0.0455,3.34326171875,-2.86279296875,-0.82080078125
0.046,3.62353515625,-2.22216796875,-1.74169921875
0.0465,3.46337890625,-1.62158203125,-2.14208984375
0.047,3.46337890625,-1.06103515625,-2.74267578125
0.0475,3.06298828125,-0.34033203125,-3.06298828125
0.048,2.78271484375,0.30029296875,-3.46337890625
0.0485,2.22216796875,1.14111328125,-3.74365234375
0.049,1.66162109375,1.90185546875,-3.82373046875
0.0495,0.82080078125,2.38232421875,-3.54345703125
0.05,0.26025390625,2.90283203125,-3.54345703125
0.0505,-0.58056640625,3.18310546875,-3.06298828125
0.051,-1.18115234375,3.46337890625,-2.82275390625
0.0515,-2.06201171875,3.78369140625,-2.14208984375
0.052,-2.38232421875,3.54345703125,-1.62158203125
0.0525,-2.90283203125,3.54345703125,-1.10107421875
0.053,-3.14306640625,3.10302734375,-0.42041015625
0.0535,-3.46337890625,2.74267578125,0.34033203125
0.054,-3.58349609375,2.02197265625,1.18115234375
0.0545,-3.82373046875,1.46142578125,1.94189453125
0.055,-3.54345703125,0.78076171875,2.38232421875
0.0555,-3.62353515625,0.30029296875,2.98291015625
0.056,-3.18310546875,-0.54052734375,3.30322265625
0.0565,-2.86279296875,-1.22119140625,3.62353515625
0.057,-2.02197265625,-2.06201171875,3.86376953125
0.0575,-1.46142578125,-2.62255859375,3.78369140625
0.058,-0.70068359375,-3.22314453125,3.58349609375
0.0585,0.06005859375,-3.70361328125,3.34326171875
0.059,0.78076171875,-3.98388671875,2.94287109375
0.0595,1.46142578125,-4.18408203125,2.46240234375
0.06,2.30224609375,-4.50439453125,1.90185546875
0.0605,2.58251953125,-4.06396484375,1.22119140625
0.061,3.14306640625,-4.14404296875,0.78076171875
0.0615,3.26318359375,-3.46337890625,0.02001953125
0.062,3.58349609375,-3.14306640625,-0.78076171875
0.0625,3.70361328125,-2.26220703125,-1.78173828125
0.063,3.78369140625,-1.70166015625,-2.38232421875
0.0635,3.42333984375,-0.94091796875,-2.86279296875
0.064,3.38330078125,-0.50048828125,-3.34326171875
0.0645,2.86279296875,0.38037109375,-3.58349609375
0.065,2.38232421875,0.98095703125,-3.86376953125
0.0655,1.78173828125,2.02197265625,-4.10400390625
0.066,0.94091796875,2.46240234375,-3.78369140625
0.0665,0.30029296875,3.06298828125,-3.70361328125
0.067,-0.58056640625,3.34326171875,-3.18310546875
0.0675,-1.22119140625,3.62353515625,-2.86279296875
0.068,-2.06201171875,3.82373046875,-2.26220703125
0.0685,-2.70263671875,3.90380859375,-1.66162109375
0.069,-2.98291015625,3.50341796875,-0.98095703125
0.0695,-3.46337890625,3.50341796875,-0.50048828125
0.07,-3.54345703125,2.70263671875,0.46044921875
0.0705,-3.82373046875,2.30224609375,1.14111328125
0.071,-3.98388671875,1.42138671875,2.18212890625
0.0715,-3.82373046875,0.78076171875,2.62255859375
0.072,-3.66357421875,0.10009765625,3.14306640625
0.0725,-3.38330078125,-0.58056640625,3.54345703125
0.073,-2.86279296875,-1.34130859375,3.78369140625
0.0735,-2.26220703125,-2.06201171875,3.98388671875
0.074,-1.58154296875,-2.90283203125,4.14404296875
0.0745,-0.62060546875,-3.30322265625,3.58349609375
0.075,0.02001953125,-3.94384765625,3.66357421875
0.0755,0.94091796875,-4.10400390625,2.94287109375
0.076,1.50146484375,-4.34423828125,2.62255859375
0.0765,2.38232421875,-4.50439453125,1.90185546875
0.077,2.86279296875,-4.38427734375,1.30126953125
0.0775,3.18310546875,-4.02392578125,0.62060546875
0.078,3.54345703125,-3.82373046875,0.06005859375
0.0785,3.58349609375,-3.06298828125,-0.90087890625
0.079,3.82373046875,-2.54248046875,-1.54150390625
0.0795,3.90380859375,-1.78173828125,-2.54248046875
0.08,3.54345703125,-1.06103515625,-2.90283203125
0.0805,3.54345703125,-0.50048828125,-3.46337890625
0.081,3.02294921875,0.30029296875,-3.70361328125
0.0815,2.58251953125,1.06103515625,-3.98388671875
0.082,1.90185546875,1.90185546875,-4.10400390625
0.0825,1.22119140625,2.58251953125,-4.10400390625
0.083,0.30029296875,2.94287109375,-3.62353515625
0.0835,-0.34033203125,3.54345703125,-3.66357421875
0.084,-1.26123046875,3.70361328125,-2.86279296875
0.0845,-1.82177734375,3.90380859375,-2.54248046875
0.085,-2.70263671875,4.10400390625,-1.82177734375
0.0855,-3.10302734375,3.74365234375,-1.14111328125
0.086,-3.54345703125,3.54345703125,-0.54052734375
0.0865,-3.78369140625,3.10302734375,0.26025390625
0.087,-3.90380859375,2.38232421875,1.14111328125
0.0875,-4.06396484375,1.74169921875,1.94189453125
0.088,-4.14404296875,0.98095703125,2.74267578125
0.0885,-3.62353515625,0.18017578125,3.06298828125
0.089,-3.70361328125,-0.46044921875,3.66357421875
0.0895,-2.94287109375,-1.30126953125,3.90380859375
0.09,-2.50244140625,-1.98193359375,4.10400390625
0.0905,-1.62158203125,-2.86279296875,4.14404296875
0.091,-0.90087890625,-3.42333984375,3.98388671875
0.0915,0.02001953125,-3.82373046875,3.54345703125
0.092,0.70068359375,-4.34423828125,3.34326171875
0.0925,1.62158203125,-4.42431640625,2.50244140625
0.093,2.18212890625,-4.50439453125,2.14208984375
0.0935,2.94287109375,-4.62451171875,1.42138671875
0.094,3.18310546875,-4.14404296875,0.70068359375
0.0945,3.62353515625,-4.02392578125,0.14013671875
0.095,3.74365234375,-3.22314453125,-0.82080078125
0.0955,3.86376953125,-2.66259765625,-1.54150390625
0.096,3.86376953125,-1.94189453125,-2.34228515625
0.0965,3.86376953125,-1.26123046875,-3.02294921875
0.097,3.38330078125,-0.50048828125,-3.34326171875
0.0975,3.34326171875,0.14013671875,-3.82373046875
0.098,2.54248046875,1.10107421875,-3.98388671875
0.0985,2.10205078125,1.74169921875,-4.18408203125
0.099,1.30126953125,2.58251953125,-4.22412109375
0.0995,0.50048828125,3.02294921875,-3.86376953125
0.1,-0.34033203125,3.54345703125,-3.66357421875
0.1005,-1.14111328125,3.86376953125,-3.18310546875
0.101,-1.94189453125,3.98388671875,-2.54248046875
0.1015,-2.54248046875,4.10400390625,-2.02197265625
0.102,-3.22314453125,4.10400390625,-1.30126953125
0.1025,-3.46337890625,3.54345703125,-0.58056640625
0.103,-3.94384765625,3.50341796875,0.02001953125
0.1035,-3.98388671875,2.46240234375,1.14111328125
0.104,-4.18408203125,1.94189453125,1.78173828125
0.1045,-4.14404296875,1.10107421875,2.62255859375
0.105,-3.98388671875,0.38037109375,3.18310546875
0.1055,-3.54345703125,-0.42041015625,3.58349609375
0.106,-3.34326171875,-1.10107421875,3.98388671875
0.1065,-2.50244140625,-2.10205078125,4.18408203125
0.107,-1.94189453125,-2.70263671875,4.22412109375
0.1075,-1.06103515625,-3.54345703125,4.22412109375
0.108,-0.14013671875,-3.86376953125,3.66357421875
0.1085,0.62060546875,-4.34423828125,3.50341796875
0.109,1.54150390625,-4.50439453125,2.74267578125
0.1095,2.26220703125,-4.66455078125,2.22216796875
0.11,2.78271484375,-4.54443359375,1.54150390625
0.1105,3.34326171875,-4.50439453125,0.90087890625
0.111,3.54345703125,-3.86376953125,0.14013671875
0.1115,3.90380859375,-3.70361328125,-0.50048828125
0.112,3.90380859375,-2.66259765625,-1.58154296875
0.1125,4.02392578125,-2.26220703125,-2.18212890625
0.113,3.98388671875,-1.38134765625,-2.98291015625
0.1135,3.66357421875,-0.62060546875,-3.34326171875
0.114,3.34326171875,0.14013671875,-3.78369140625
0.1145,2.86279296875,0.86083984375,-4.02392578125
0.115,2.14208984375,1.74169921875,-4.22412109375
0.1155,1.50146484375,2.30224609375,-4.18408203125
0.116,0.74072265625,3.02294921875,-4.14404296875
0.1165,-0.18017578125,3.34326171875,-3.58349609375
0.117,-0.78076171875,3.86376953125,-3.54345703125
0.1175,-1.78173828125,3.90380859375,-2.58251953125
0.118,-2.38232421875,4.14404296875,-2.22216796875
0.1185,-2.94287109375,3.98388671875,-1.46142578125
0.119,-3.38330078125,3.82373046875,-0.86083984375
0.1195,-3.66357421875,3.30322265625,-0.14013671875
0.12,-3.94384765625,2.86279296875,0.62060546875
0.1205,-4.02392578125,1.94189453125,1.58154296875
0.121,-4.10400390625,1.46142578125,2.18212890625
0.1215,-4.02392578125,0.66064453125,2.98291015625
0.122,-3.66357421875,0.02001953125,3.30322265625
0.1225,-3.50341796875,-0.70068359375,3.82373046875
0.123,-2.82275390625,-1.58154296875,3.98388671875
0.1235,-2.26220703125,-2.38232421875,4.22412109375
0.124,-1.42138671875,-2.98291015625,4.02392578125
0.1245,-0.66064453125,-3.62353515625,3.98388671875
0.125,0.30029296875,-3.94384765625,3.38330078125
0.1255,0.86083984375,-4.38427734375,3.26318359375
0.126,1.86181640625,-4.50439453125,2.38232421875
0.1265,2.38232421875,-4.62451171875,1.98193359375
0.127,2.94287109375,-4.46435546875,1.26123046875
0.1275,3.30322265625,-4.14404296875,0.62060546875
0.128,3.62353515625,-3.82373046875,-0.14013671875
0.1285,3.78369140625,-3.18310546875,-0.94091796875
0.129,3.94384765625,-2.50244140625,-1.86181640625
0.1295,3.86376953125,-1.82177734375,-2.42236328125
0.13,3.82373046875,-1.10107421875,-3.06298828125
0.1305,3.34326171875,-0.34033203125,-3.34326171875
0.131,3.22314453125,0.30029296875,-3.86376953125
0.1315,2.38232421875,1.26123046875,-3.98388671875
0.132,1.94189453125,1.94189453125,-4.22412109375
0.1325,1.02099609375,2.54248046875,-3.94384765625
0.133,0.38037109375,3.10302734375,-3.82373046875
0.1335,-0.50048828125,3.42333984375,-3.38330078125
0.134,-1.14111328125,3.74365234375,-3.06298828125
0.1345,-2.06201171875,3.90380859375,-2.30224609375
0.135,-2.42236328125,3.86376953125,-1.94189453125
0.1355,-3.06298828125,3.82373046875,-1.22119140625
0.136,-3.30322265625,3.34326171875,-0.58056640625
0.1365,-3.70361328125,3.10302734375,0.14013671875
0.137,-3.78369140625,2.26220703125,1.02099609375
0.1375,-4.02392578125,1.82177734375,1.86181640625
0.138,-3.86376953125,1.10107421875,2.42236328125
0.1385,-3.82373046875,0.50048828125,3.02294921875
0.139,-3.38330078125,-0.38037109375,3.38330078125
0.1395,-3.18310546875,-0.98095703125,3.82373046875
0.14,-2.42236328125,-1.94189453125,3.98388671875
0.1405,-1.86181640625,-2.54248046875,4.06396484375
0.141,-0.98095703125,-3.18310546875,3.86376953125
0.1415,-0.30029296875,-3.70361328125,3.58349609375
0.142,0.50048828125,-4.10400390625,3.26318359375
0.1425,1.26123046875,-4.26416015625,2.74267578125
0.143,2.06201171875,-4.54443359375,2.22216796875
0.1435,2.46240234375,-4.34423828125,1.62158203125
0.144,3.06298828125,-4.42431640625,1.02099609375
0.1445,3.22314453125,-3.82373046875,0.26025390625
0.145,3.66357421875,-3.58349609375,-0.42041015625
0.1455,3.66357421875,-2.58251953125,-1.38134765625
0.146,3.86376953125,-2.22216796875,-2.02197265625
0.1465,3.62353515625,-1.38134765625,-2.58251953125
0.147,3.54345703125,-0.82080078125,-3.06298828125
0.1475,3.10302734375,0.02001953125,-3.46337890625
0.148,2.78271484375,0.62060546875,-3.78369140625
0.1485,2.06201171875,1.58154296875,-4.02392578125
0.149,1.50146484375,2.06201171875,-3.86376953125
0.1495,0.74072265625,2.70263671875,-3.82373046875
0.15,0.02001953125,3.10302734375,-3.42333984375
0.1505,-0.62060546875,3.46337890625,-3.22314453125
0.151,-1.46142578125,3.62353515625,-2.58251953125
0.1515,-2.10205078125,3.86376953125,-2.18212890625
0.152,-2.50244140625,3.54345703125,-1.58154296875
0.1525,-2.98291015625,3.54345703125,-1.10107421875
0.153,-3.18310546875,3.02294921875,-0.34033203125
0.1535,-3.54345703125,2.78271484375,0.38037109375
0.154,-3.66357421875,1.94189453125,1.34130859375
0.1545,-3.82373046875,1.58154296875,1.86181640625
0.155,-3.66357421875,0.78076171875,2.50244140625
0.1555,-3.54345703125,0.22021484375,2.90283203125
0.156,-3.26318359375,-0.58056640625,3.38330078125
0.1565,-2.74267578125,-1.26123046875,3.58349609375
0.157,-2.26220703125,-2.06201171875,3.90380859375
0.1575,-1.46142578125,-2.54248046875,3.66357421875
0.158,-0.82080078125,-3.22314453125,3.70361328125
0.1585,0.02001953125,-3.54345703125,3.22314453125
0.159,0.62060546875,-3.98388671875,3.14306640625
0.1595,1.50146484375,-4.14404296875,2.38232421875
0.16,1.98193359375,-4.38427734375,2.06201171875
0.1605,2.46240234375,-4.18408203125,1.38134765625
0.161,2.86279296875,-4.10400390625,0.90087890625
0.1615,3.18310546875,-3.54345703125,0.14013671875
0.162,3.38330078125,-3.10302734375,-0.62060546875
0.1625,3.66357421875,-2.42236328125,-1.50146484375
0.163,3.54345703125,-1.94189453125,-1.94189453125
0.1635,3.54345703125,-1.26123046875,-2.62255859375
0.164,3.18310546875,-0.58056640625,-2.98291015625
0.1645,3.06298828125,0.10009765625,-3.46337890625
0.165,2.42236328125,0.94091796875,-3.66357421875
0.1655,1.94189453125,1.58154296875,-3.90380859375
0.166,1.14111328125,2.14208984375,-3.58349609375
0.1665,0.58056640625,2.74267578125,-3.66357421875
0.167,-0.30029296875,3.06298828125,-3.22314453125
0.1675,-0.82080078125,3.38330078125,-2.98291015625
0.168,-1.74169921875,3.62353515625,-2.42236328125
0.1685,-2.06201171875,3.58349609375,-1.94189453125
0.169,-2.66259765625,3.54345703125,-1.38134765625
0.1695,-2.94287109375,3.22314453125,-0.78076171875
0.17,-3.34326171875,2.90283203125,0.02001953125
0.1705,-3.46337890625,2.26220703125,0.82080078125
0.171,-3.78369140625,1.78173828125,1.58154296875
0.1715,-3.54345703125,1.10107421875,2.06201171875
0.172,-3.70361328125,0.62060546875,2.70263671875
0.1725,-3.22314453125,-0.26025390625,3.06298828125
0.173,-3.02294921875,-0.82080078125,3.46337890625
0.1735,-2.38232421875,-1.70166015625,3.70361328125
0.174,-1.82177734375,-2.26220703125,3.74365234375
0.1745,-1.02099609375,-2.86279296875,3.54345703125
0.175,-0.34033203125,-3.38330078125,3.42333984375
0.1755,0.34033203125,-3.70361328125,3.06298828125
0.176,1.02099609375,-4.02392578125,2.62255859375
0.1765,1.82177734375,-4.30419921875,2.18212890625
0.177,2.10205078125,-4.06396484375,1.58154296875
0.1775,2.70263671875,-4.10400390625,1.18115234375
0.178,2.86279296875,-3.54345703125,0.42041015625
0.1785,3.26318359375,-3.34326171875,-0.26025390625
0.179,3.38330078125,-2.54248046875,-1.14111328125
0.1795,3.58349609375,-2.18212890625,-1.74169921875
0.18,3.34326171875,-1.42138671875,-2.26220703125
0.1805,3.42333984375,-0.98095703125,-2.82275390625
0.181,3.02294921875,-0.18017578125,-3.18310546875
0.1815,2.70263671875,0.50048828125,-3.50341796875
0.182,2.14208984375,1.34130859375,-3.82373046875
0.1825,1.46142578125,1.86181640625,-3.66357421875
0.183,0.78076171875,2.54248046875,-3.70361328125
0.1835,0.06005859375,2.86279296875,-3.34326171875
0.184,-0.58056640625,3.22314453125,-3.14306640625
0.1845,-1.34130859375,3.46337890625,-2.58251953125
0.185,-1.98193359375,3.70361328125,-2.22216796875
0.1855,-2.34228515625,3.46337890625,-1.58154296875
0.186,-2.86279296875,3.54345703125,-1.14111328125
0.1865,-3.06298828125,2.90283203125,-0.30029296875
0.187,-3.42333984375,2.62255859375,0.42041015625
0.1875,-3.62353515625,1.82177734375,1.38134765625
0.188,-3.66357421875,1.42138671875,1.86181640625
0.1885,-3.54345703125,0.70068359375,2.46240234375
0.189,-3.42333984375,0.14013671875,2.90283203125
0.1895,-3.06298828125,-0.62060546875,3.30322265625
0.19,-2.54248046875,-1.34130859375,3.54345703125
0.1905,-2.02197265625,-2.14208984375,3.82373046875
0.191,-1.26123046875,-2.58251953125,3.46337890625
0.1915,-0.62060546875,-3.22314453125,3.54345703125
0.192,0.18017578125,-3.54345703125,3.06298828125
0.1925,0.74072265625,-3.90380859375,2.86279296875
0.193,1.58154296875,-4.14404296875,2.22216796875
0.1935,2.02197265625,-4.14404296875,1.86181640625
0.194,2.46240234375,-3.90380859375,1.26123046875
0.1945,2.82275390625,-3.82373046875,0.74072265625
0.195,3.06298828125,-3.26318359375,0.02001953125
0.1955,3.26318359375,-2.86279296875,-0.74072265625
0.196,3.54345703125,-2.26220703125,-1.62158203125
0.1965,3.34326171875,-1.66162109375,-1.98193359375
0.197,3.42333984375,-1.14111328125,-2.66259765625
0.1975,3.06298828125,-0.46044921875,-2.98291015625
0.198,2.86279296875,0.26025390625,-3.38330078125
0.1985,2.26220703125,1.02099609375,-3.66357421875
0.199,1.78173828125,1.66162109375,-3.78369140625
0.1995,0.98095703125,2.22216796875,-3.50341796875
