wavelength,x,y,z
0.0,-1.151123046875,-6.115966796875,5.054931640625
0.0005,-1.791748046875,-6.035888671875,5.695556640625
0.001,-2.752685546875,-5.635498046875,6.376220703125
0.0015,-4.033935546875,-4.514404296875,6.736572265625
0.002,-4.994873046875,-3.113037109375,6.696533203125
0.0025,-5.635498046875,-1.711669921875,6.256103515625
0.003,-5.915771484375,-0.870849609375,6.015869140625
0.0035,-5.995849609375,0.010009765625,5.615478515625
0.004,-6.115966796875,0.850830078125,5.255126953125
0.0045,-5.755615234375,2.292236328125,3.693603515625
0.005,-5.235107421875,3.453369140625,2.292236328125
0.0055,-4.794677734375,4.214111328125,1.251220703125
0.006,-4.434326171875,4.814697265625,0.490478515625
0.0065,-3.873779296875,5.375244140625,-0.510498046875
0.007,-3.072998046875,5.735595703125,-1.631591796875
0.0075,-1.631591796875,5.695556640625,-3.032958984375
0.008,-0.310302734375,5.415283203125,-4.154052734375
0.0085,0.530517578125,5.375244140625,-4.874755859375
0.009,1.251220703125,5.295166015625,-5.635498046875
0.0095,2.132080078125,5.054931640625,-6.436279296875
0.01,3.573486328125,3.573486328125,-6.636474609375
0.0105,4.534423828125,2.252197265625,-6.556396484375
0.011,5.094970703125,1.091064453125,-6.276123046875
0.0115,5.415283203125,0.330322265625,-6.115966796875
0.012,5.615478515625,-0.630615234375,-5.755615234375
0.0125,5.735595703125,-1.631591796875,-5.195068359375
0.013,5.335205078125,-2.952880859375,-3.753662109375
0.0135,4.814697265625,-4.154052734375,-2.272216796875
0.014,4.414306640625,-4.834716796875,-1.311279296875
0.0145,4.013916015625,-5.435302734375,-0.590576171875
0.015,3.613525390625,-6.075927734375,0.450439453125
0.0155,2.212158203125,-6.276123046875,1.931884765625
0.016,0.810791015625,-6.156005859375,3.213134765625
0.0165,-0.310302734375,-6.035888671875,4.134033203125
0.017,-0.990966796875,-6.075927734375,4.854736328125
0.0175,-1.871826171875,-5.835693359375,5.615478515625
0.018,-2.832763671875,-5.395263671875,6.376220703125
0.0185,-4.114013671875,-3.873779296875,6.416259765625
0.019,-4.994873046875,-2.432373046875,6.135986328125
0.0195,-5.435302734375,-1.471435546875,5.895751953125
0.02,-5.635498046875,-0.750732421875,5.695556640625
0.0205,-5.795654296875,0.170166015625,5.415283203125
0.021,-5.715576171875,1.411376953125,4.334228515625
0.0215,-5.395263671875,2.532470703125,3.133056640625
0.022,-4.914794921875,3.493408203125,1.931884765625
0.0225,-4.554443359375,4.174072265625,1.010986328125
0.023,-4.154052734375,4.774658203125,0.210205078125
0.0235,-3.753662109375,5.375244140625,-0.750732421875
0.024,-2.272216796875,5.375244140625,-2.192138671875
0.0245,-0.910888671875,5.215087890625,-3.393310546875
0.025,0.010009765625,5.135009765625,-4.194091796875
0.0255,0.610595703125,5.255126953125,-4.954833984375
0.026,1.491455078125,5.054931640625,-5.715576171875
0.0265,2.652587890625,4.174072265625,-6.236083984375
0.027,3.693603515625,3.012939453125,-6.276123046875
0.0275,4.454345703125,1.651611328125,-6.035888671875
0.028,4.854736328125,0.850830078125,-5.875732421875
0.0285,5.094970703125,0.130126953125,-5.715576171875
0.029,5.375244140625,-0.710693359375,-5.595458984375
0.0295,5.094970703125,-1.991943359375,-4.274169921875
0.03,4.734619140625,-3.153076171875,-2.992919921875
0.0305,4.374267578125,-3.913818359375,-2.031982421875
0.031,4.134033203125,-4.634521484375,-1.271240234375
0.0315,3.773681640625,-5.275146484375,-0.390380859375
0.032,3.173095703125,-5.795654296875,0.690673828125
0.0325,1.891845703125,-5.835693359375,1.971923828125
0.033,0.610595703125,-5.755615234375,3.052978515625
0.0335,-0.190185546875,-5.875732421875,3.853759765625
0.034,-0.830810546875,-5.835693359375,4.614501953125
0.0345,-1.631591796875,-5.795654296875,5.495361328125
0.035,-2.952880859375,-4.634521484375,5.775634765625
0.0355,-3.913818359375,-3.433349609375,5.815673828125
0.036,-4.594482421875,-2.392333984375,5.695556640625
0.0365,-4.994873046875,-1.631591796875,5.615478515625
0.037,-5.275146484375,-0.910888671875,5.455322265625
0.0375,-5.555419921875,0.050048828125,5.175048828125
0.038,-5.275146484375,1.251220703125,4.013916015625
0.0385,-4.914794921875,2.332275390625,2.772705078125
0.039,-4.634521484375,3.133056640625,1.931884765625
0.0395,-4.434326171875,3.813720703125,1.211181640625
0.04,-4.194091796875,4.494384765625,0.410400390625
0.0405,-3.193115234375,4.814697265625,-0.950927734375
0.041,-2.112060546875,4.974853515625,-2.072021484375
0.0415,-1.151123046875,4.934814453125,-3.072998046875
0.042,-0.470458984375,5.094970703125,-3.873779296875
0.0425,0.450439453125,5.094970703125,-4.674560546875
0.043,1.291259765625,5.014892578125,-5.595458984375
0.0435,2.572509765625,3.773681640625,-5.755615234375
0.044,3.533447265625,2.492431640625,-5.755615234375
0.0445,4.134033203125,1.571533203125,-5.715576171875
0.045,4.534423828125,0.970947265625,-5.715576171875
0.0455,4.934814453125,0.210205078125,-5.595458984375
0.046,5.014892578125,-0.990966796875,-4.874755859375
0.0465,4.814697265625,-1.991943359375,-3.913818359375
0.047,4.494384765625,-3.032958984375,-2.832763671875
0.0475,4.214111328125,-3.833740234375,-1.951904296875
0.048,4.013916015625,-4.514404296875,-1.231201171875
0.0485,3.853759765625,-5.355224609375,-0.470458984375
0.049,2.572509765625,-5.475341796875,0.970947265625
0.0495,1.331298828125,-5.555419921875,2.172119140625
0.05,0.610595703125,-5.635498046875,3.052978515625
0.0505,0.010009765625,-5.795654296875,3.893798828125
0.051,-0.990966796875,-5.755615234375,4.814697265625
0.0515,-2.072021484375,-5.235107421875,5.455322265625
0.052,-3.153076171875,-4.154052734375,5.655517578125
0.0525,-4.033935546875,-2.912841796875,5.575439453125
0.053,-4.554443359375,-2.112060546875,5.535400390625
0.0535,-4.954833984375,-1.431396484375,5.495361328125
0.054,-5.355224609375,-0.710693359375,5.455322265625
0.0545,-5.155029296875,0.610595703125,4.374267578125
0.055,-4.994873046875,1.731689453125,3.333251953125
0.0555,-4.754638671875,2.572509765625,2.412353515625
0.056,-4.554443359375,3.373291015625,1.571533203125
0.0565,-4.234130859375,4.053955078125,0.770751953125
0.057,-3.833740234375,4.694580078125,-0.310302734375
0.0575,-2.712646484375,4.814697265625,-1.471435546875
0.058,-1.471435546875,4.854736328125,-2.632568359375
0.0585,-0.790771484375,5.014892578125,-3.473388671875
0.059,0.050048828125,5.094970703125,-4.354248046875
0.0595,0.930908203125,5.094970703125,-5.275146484375
0.06,2.252197265625,3.973876953125,-5.675537109375
0.0605,3.253173828125,2.932861328125,-5.755615234375
0.061,3.973876953125,1.891845703125,-5.715576171875
0.0615,4.454345703125,1.131103515625,-5.755615234375
0.062,4.774658203125,0.370361328125,-5.595458984375
0.0625,5.094970703125,-0.590576171875,-5.395263671875
0.063,4.854736328125,-1.791748046875,-4.194091796875
0.0635,4.534423828125,-2.952880859375,-2.912841796875
0.064,4.294189453125,-3.713623046875,-2.072021484375
0.0645,4.093994140625,-4.514404296875,-1.311279296875
0.065,3.813720703125,-5.195068359375,-0.510498046875
0.0655,2.732666015625,-5.595458984375,0.890869140625
0.066,1.611572265625,-5.635498046875,2.092041015625
0.0665,0.610595703125,-5.635498046875,3.093017578125
0.067,0.010009765625,-5.755615234375,3.893798828125
0.0675,-0.990966796875,-5.715576171875,4.734619140625
0.068,-1.831787109375,-5.595458984375,5.615478515625
0.0685,-3.193115234375,-4.234130859375,5.775634765625
0.069,-4.154052734375,-2.912841796875,5.695556640625
0.0695,-4.674560546875,-2.072021484375,5.615478515625
0.07,-4.994873046875,-1.351318359375,5.535400390625
0.0705,-5.315185546875,-0.590576171875,5.295166015625
0.071,-5.395263671875,0.650634765625,4.534423828125
0.0715,-5.155029296875,1.771728515625,3.493408203125
0.072,-4.834716796875,2.732666015625,2.292236328125
0.0725,-4.514404296875,3.493408203125,1.451416015625
0.073,-4.234130859375,4.093994140625,0.730712890625
0.0735,-3.993896484375,4.814697265625,-0.190185546875
0.074,-2.632568359375,4.974853515625,-1.591552734375
0.0745,-1.431396484375,4.974853515625,-2.752685546875
0.075,-0.670654296875,5.054931640625,-3.593505859375
0.0755,0.130126953125,5.175048828125,-4.434326171875
0.076,1.051025390625,4.974853515625,-5.275146484375
0.0765,2.172119140625,4.414306640625,-5.915771484375
0.077,3.253173828125,3.173095703125,-6.075927734375
0.0775,4.134033203125,1.891845703125,-5.835693359375
0.078,4.574462890625,1.051025390625,-5.755615234375
0.0785,4.854736328125,0.330322265625,-5.635498046875
0.079,5.215087890625,-0.550537109375,-5.515380859375
0.0795,5.014892578125,-1.871826171875,-4.234130859375
0.08,4.774658203125,-3.032958984375,-3.072998046875
0.0805,4.454345703125,-3.873779296875,-2.112060546875
0.081,4.134033203125,-4.594482421875,-1.271240234375
0.0815,3.693603515625,-5.235107421875,-0.470458984375
0.082,3.173095703125,-5.755615234375,0.690673828125
0.0825,1.771728515625,-5.835693359375,2.052001953125
0.083,0.570556640625,-5.755615234375,3.213134765625
0.0835,-0.230224609375,-5.795654296875,4.013916015625
0.084,-0.990966796875,-5.795654296875,4.814697265625
0.0845,-1.911865234375,-5.635498046875,5.655517578125
0.085,-3.273193359375,-4.394287109375,6.015869140625
0.0855,-4.274169921875,-3.193115234375,6.055908203125
0.086,-4.914794921875,-2.072021484375,5.815673828125
0.0865,-5.235107421875,-1.271240234375,5.695556640625
0.087,-5.475341796875,-0.470458984375,5.415283203125
0.0875,-5.755615234375,0.570556640625,5.054931640625
0.088,-5.395263671875,1.931884765625,3.653564453125
0.0885,-4.994873046875,3.012939453125,2.252197265625
0.089,-4.634521484375,3.773681640625,1.371337890625
0.0895,-4.354248046875,4.334228515625,0.610595703125
0.09,-3.873779296875,5.014892578125,-0.390380859375
0.0905,-2.712646484375,5.375244140625,-1.791748046875
0.091,-1.471435546875,5.375244140625,-3.072998046875
0.0915,-0.430419921875,5.255126953125,-3.993896484375
0.092,0.370361328125,5.255126953125,-4.754638671875
0.0925,1.251220703125,5.094970703125,-5.515380859375
0.093,2.252197265625,4.774658203125,-6.396240234375
0.0935,3.693603515625,3.173095703125,-6.476318359375
0.094,4.614501953125,1.771728515625,-6.276123046875
0.0945,5.094970703125,0.810791015625,-6.115966796875
0.095,5.255126953125,0.010009765625,-5.875732421875
0.0955,5.495361328125,-0.990966796875,-5.435302734375
0.096,5.495361328125,-2.312255859375,-4.434326171875
0.0965,5.135009765625,-3.553466796875,-3.113037109375
0.097,4.654541015625,-4.594482421875,-1.791748046875
0.0975,4.174072265625,-5.235107421875,-0.950927734375
0.098,3.733642578125,-5.715576171875,0.050048828125
0.0985,3.213134765625,-6.316162109375,0.970947265625
0.099,1.491455078125,-6.316162109375,2.732666015625
0.0995,0.130126953125,-6.196044921875,3.973876953125
0.1,-0.790771484375,-6.075927734375,4.694580078125
0.1005,-1.431396484375,-5.955810546875,5.375244140625
0.101,-2.552490234375,-5.475341796875,6.135986328125
0.1015,-3.753662109375,-4.594482421875,6.696533203125
0.102,-4.874755859375,-3.153076171875,6.656494140625
0.1025,-5.595458984375,-1.671630859375,6.256103515625
0.103,-5.795654296875,-0.830810546875,5.935791015625
0.1035,-5.915771484375,0.090087890625,5.535400390625
0.104,-6.075927734375,1.010986328125,5.094970703125
0.1045,-5.755615234375,2.532470703125,3.493408203125
0.105,-5.315185546875,3.653564453125,2.132080078125
0.1055,-4.834716796875,4.414306640625,1.051025390625
0.106,-4.354248046875,4.974853515625,0.250244140625
0.1065,-3.713623046875,5.415283203125,-0.790771484375
0.107,-2.872802734375,5.895751953125,-1.991943359375
0.1075,-1.271240234375,5.775634765625,-3.513427734375
0.108,0.130126953125,5.495361328125,-4.594482421875
0.1085,0.850830078125,5.415283203125,-5.235107421875
0.109,1.571533203125,5.175048828125,-5.915771484375
0.1095,2.692626953125,4.734619140625,-6.676513671875
0.11,4.134033203125,3.253173828125,-6.916748046875
0.1105,5.054931640625,1.891845703125,-6.796630859375
0.111,5.495361328125,0.650634765625,-6.396240234375
0.1115,5.695556640625,-0.270263671875,-6.115966796875
0.112,5.735595703125,-1.151123046875,-5.595458984375
0.1125,5.895751953125,-2.232177734375,-5.034912109375
0.113,5.415283203125,-3.713623046875,-3.313232421875
0.1135,4.814697265625,-4.834716796875,-1.871826171875
0.114,4.334228515625,-5.435302734375,-0.830810546875
0.1145,3.853759765625,-5.915771484375,0.050048828125
0.115,3.173095703125,-6.396240234375,1.051025390625
0.1155,1.771728515625,-6.636474609375,2.652587890625
0.116,0.370361328125,-6.516357421875,3.973876953125
0.1165,-0.910888671875,-6.236083984375,4.854736328125
0.117,-1.551513671875,-6.115966796875,5.495361328125
0.1175,-2.432373046875,-5.755615234375,6.176025390625
0.118,-3.433349609375,-5.275146484375,6.896728515625
0.1185,-4.834716796875,-3.513427734375,6.896728515625
0.119,-5.715576171875,-1.991943359375,6.536376953125
0.1195,-6.075927734375,-0.990966796875,6.216064453125
0.12,-6.115966796875,-0.190185546875,5.855712890625
0.1205,-6.236083984375,0.850830078125,5.295166015625
0.121,-6.115966796875,2.212158203125,4.134033203125
0.1215,-5.715576171875,3.373291015625,2.692626953125
0.122,-5.074951171875,4.454345703125,1.331298828125
0.1225,-4.514404296875,5.014892578125,0.410400390625
0.123,-3.953857421875,5.415283203125,-0.510498046875
0.1235,-3.433349609375,5.935791015625,-1.471435546875
0.124,-1.671630859375,5.895751953125,-3.193115234375
0.1245,-0.270263671875,5.735595703125,-4.434326171875
0.125,0.690673828125,5.495361328125,-5.114990234375
0.1255,1.331298828125,5.415283203125,-5.755615234375
0.126,2.412353515625,4.934814453125,-6.476318359375
0.1265,3.573486328125,4.053955078125,-7.076904296875
0.127,4.734619140625,2.532470703125,-6.996826171875
0.1275,5.455322265625,1.010986328125,-6.556396484375
0.128,5.735595703125,0.090087890625,-6.236083984375
0.1285,5.775634765625,-0.830810546875,-5.835693359375
0.129,5.975830078125,-1.751708984375,-5.435302734375
0.1295,5.575439453125,-3.353271484375,-3.833740234375
0.13,5.135009765625,-4.474365234375,-2.392333984375
0.1305,4.614501953125,-5.195068359375,-1.271240234375
0.131,4.134033203125,-5.795654296875,-0.350341796875
0.1315,3.493408203125,-6.276123046875,0.690673828125
0.132,2.612548828125,-6.756591796875,1.891845703125
0.1325,0.930908203125,-6.596435546875,3.453369140625
0.133,-0.590576171875,-6.276123046875,4.614501953125
0.1335,-1.271240234375,-6.156005859375,5.255126953125
0.134,-1.991943359375,-5.955810546875,5.895751953125
0.1345,-3.072998046875,-5.515380859375,6.696533203125
0.135,-4.514404296875,-4.033935546875,6.936767578125
0.1355,-5.435302734375,-2.632568359375,6.776611328125
0.136,-5.955810546875,-1.351318359375,6.376220703125
0.1365,-6.115966796875,-0.550537109375,6.055908203125
0.137,-6.196044921875,0.490478515625,5.495361328125
0.1375,-6.396240234375,1.491455078125,4.974853515625
0.138,-5.875732421875,3.052978515625,3.213134765625
0.1385,-5.275146484375,4.214111328125,1.651611328125
0.139,-4.794677734375,4.854736328125,0.690673828125
0.1395,-4.234130859375,5.375244140625,-0.230224609375
0.14,-3.593505859375,5.895751953125,-1.271240234375
0.1405,-2.232177734375,6.135986328125,-2.832763671875
0.141,-0.790771484375,6.015869140625,-4.154052734375
0.1415,0.530517578125,5.655517578125,-5.114990234375
0.142,1.211181640625,5.535400390625,-5.755615234375
0.1425,2.092041015625,5.135009765625,-6.396240234375
0.143,3.133056640625,4.654541015625,-7.116943359375
0.1435,4.614501953125,2.852783203125,-7.116943359375
0.144,5.455322265625,1.291259765625,-6.756591796875
0.1445,5.735595703125,0.250244140625,-6.396240234375
0.145,5.855712890625,-0.630615234375,-6.075927734375
0.1455,5.895751953125,-1.631591796875,-5.475341796875
0.146,5.815673828125,-2.952880859375,-4.314208984375
0.1465,5.375244140625,-4.194091796875,-2.872802734375
0.147,4.734619140625,-5.155029296875,-1.431396484375
0.1475,4.134033203125,-5.755615234375,-0.470458984375
0.148,3.573486328125,-6.156005859375,0.450439453125
0.1485,3.052978515625,-6.676513671875,1.411376953125
0.149,1.211181640625,-6.636474609375,3.173095703125
0.1495,-0.310302734375,-6.396240234375,4.414306640625
0.15,-1.151123046875,-6.156005859375,5.094970703125
0.1505,-1.791748046875,-6.075927734375,5.735595703125
0.151,-2.752685546875,-5.555419921875,6.376220703125
0.1515,-3.913818359375,-4.794677734375,6.936767578125
0.152,-5.034912109375,-3.233154296875,6.856689453125
0.1525,-5.755615234375,-1.791748046875,6.376220703125
0.153,-5.955810546875,-0.870849609375,6.055908203125
0.1535,-6.075927734375,0.010009765625,5.655517578125
0.154,-6.156005859375,0.930908203125,5.255126953125
0.1545,-5.795654296875,2.372314453125,3.693603515625
0.155,-5.395263671875,3.493408203125,2.372314453125
0.1555,-4.834716796875,4.294189453125,1.291259765625
0.156,-4.434326171875,4.854736328125,0.410400390625
0.1565,-3.873779296875,5.335205078125,-0.510498046875
0.157,-3.193115234375,5.815673828125,-1.551513671875
0.1575,-1.631591796875,5.735595703125,-3.032958984375
0.158,-0.230224609375,5.415283203125,-4.234130859375
0.1585,0.610595703125,5.375244140625,-4.914794921875
0.159,1.291259765625,5.295166015625,-5.635498046875
0.1595,2.212158203125,4.974853515625,-6.396240234375
0.16,3.573486328125,3.693603515625,-6.716552734375
0.1605,4.494384765625,2.372314453125,-6.676513671875
0.161,5.135009765625,1.131103515625,-6.356201171875
0.1615,5.415283203125,0.290283203125,-6.115966796875
0.162,5.535400390625,-0.630615234375,-5.755615234375
0.1625,5.775634765625,-1.471435546875,-5.435302734375
0.163,5.375244140625,-2.952880859375,-3.793701171875
0.1635,4.854736328125,-4.114013671875,-2.392333984375
0.164,4.414306640625,-4.834716796875,-1.431396484375
0.1645,4.093994140625,-5.475341796875,-0.630615234375
0.165,3.533447265625,-5.995849609375,0.450439453125
0.1655,2.412353515625,-6.356201171875,1.851806640625
0.166,1.010986328125,-6.276123046875,3.093017578125
0.1665,-0.270263671875,-6.035888671875,4.134033203125
0.167,-0.950927734375,-6.035888671875,4.814697265625
0.1675,-1.711669921875,-5.835693359375,5.535400390625
0.168,-2.592529296875,-5.595458984375,6.336181640625
0.1685,-4.033935546875,-3.993896484375,6.416259765625
0.169,-4.914794921875,-2.632568359375,6.216064453125
0.1695,-5.395263671875,-1.631591796875,5.935791015625
0.17,-5.595458984375,-0.870849609375,5.735595703125
0.1705,-5.755615234375,0.050048828125,5.375244140625
0.171,-5.755615234375,1.171142578125,4.574462890625
0.1715,-5.435302734375,2.332275390625,3.333251953125
0.172,-4.954833984375,3.373291015625,1.971923828125
0.1725,-4.554443359375,4.093994140625,1.131103515625
0.173,-4.154052734375,4.614501953125,0.330322265625
0.1735,-3.873779296875,5.255126953125,-0.510498046875
0.174,-2.432373046875,5.335205078125,-1.991943359375
0.1745,-1.151123046875,5.255126953125,-3.193115234375
0.175,-0.270263671875,5.175048828125,-4.033935546875
0.1755,0.450439453125,5.255126953125,-4.794677734375
0.176,1.331298828125,5.054931640625,-5.515380859375
0.1765,2.332275390625,4.534423828125,-6.276123046875
0.177,3.533447265625,3.213134765625,-6.316162109375
0.1775,4.334228515625,1.771728515625,-6.115966796875
0.178,4.814697265625,0.970947265625,-5.915771484375
0.1785,5.054931640625,0.250244140625,-5.755615234375
0.179,5.335205078125,-0.590576171875,-5.635498046875
0.1795,5.135009765625,-1.871826171875,-4.394287109375
0.18,4.814697265625,-2.952880859375,-3.233154296875
0.1805,4.494384765625,-3.873779296875,-2.192138671875
0.181,4.174072265625,-4.554443359375,-1.351318359375
0.1815,3.813720703125,-5.195068359375,-0.510498046875
0.182,3.373291015625,-5.795654296875,0.490478515625
0.1825,1.971923828125,-5.795654296875,1.851806640625
0.183,0.690673828125,-5.715576171875,3.012939453125
0.1835,0.010009765625,-5.755615234375,3.813720703125
0.184,-0.830810546875,-5.835693359375,4.614501953125
0.1845,-1.671630859375,-5.755615234375,5.415283203125
0.185,-2.872802734375,-4.794677734375,5.895751953125
0.1855,-3.913818359375,-3.673583984375,5.935791015625
0.186,-4.634521484375,-2.432373046875,5.735595703125
0.1865,-5.034912109375,-1.631591796875,5.695556640625
0.187,-5.275146484375,-0.910888671875,5.495361328125
0.1875,-5.595458984375,0.010009765625,5.335205078125
0.188,-5.315185546875,1.251220703125,4.053955078125
