wavelength,x,y,z
0.0,2.8427734375,-5.28515625,1.921875
0.0005,3.203125,-5.0048828125,1.2412109375
0.001,3.68359375,-4.96484375,0.6005859375
0.0015,3.5634765625,-4.1240234375,-0.3203125
0.002,3.84375,-3.7236328125,-1.0009765625
0.0025,3.84375,-2.6826171875,-2.2021484375
0.003,3.923828125,-2.1220703125,-2.8828125
0.0035,3.6435546875,-1.1611328125,-3.5634765625
0.004,3.2431640625,-0.4404296875,-4.00390625
0.0045,2.6025390625,0.560546875,-4.2041015625
0.005,2.0419921875,1.44140625,-4.564453125
0.0055,1.12109375,2.6826171875,-4.884765625
0.006,0.2802734375,3.3232421875,-4.64453125
0.0065,-0.6005859375,4.083984375,-4.5244140625
0.007,-1.3212890625,4.2041015625,-3.923828125
0.0075,-2.001953125,4.484375,-3.4833984375
0.008,-2.962890625,4.7646484375,-2.72265625
0.0085,-3.7236328125,4.9248046875,-2.001953125
0.009,-3.9638671875,4.484375,-1.2412109375
0.0095,-4.244140625,4.32421875,-0.640625
0.01,-4.1240234375,3.283203125,0.2802734375
0.0105,-4.2041015625,2.6826171875,1.0810546875
0.011,-4.244140625,1.681640625,2.2021484375
0.0115,-4.083984375,1.0810546875,2.6826171875
0.012,-3.763671875,0.2802734375,3.2431640625
0.0125,-3.2431640625,-0.48046875,3.443359375
0.013,-2.6826171875,-1.201171875,3.6435546875
0.0135,-1.9619140625,-2.1220703125,3.8037109375
0.014,-1.1611328125,-3.203125,4.00390625
0.0145,-0.2802734375,-3.6435546875,3.5634765625
0.015,0.3603515625,-4.2041015625,3.5234375
0.0155,0.9609375,-4.2041015625,2.9228515625
0.016,1.521484375,-4.5244140625,2.5625
0.0165,2.40234375,-4.7646484375,1.8818359375
0.017,2.8828125,-4.7646484375,1.3212890625
0.0175,3.1630859375,-4.484375,0.720703125
0.018,3.203125,-4.244140625,0.240234375
0.0185,3.2431640625,-3.5234375,-0.6005859375
0.019,3.4833984375,-3.04296875,-1.44140625
0.0195,3.5234375,-2.2822265625,-2.2822265625
0.02,3.4033203125,-1.7216796875,-2.72265625
0.0205,3.283203125,-1.041015625,-3.36328125
0.021,2.72265625,-0.3203125,-3.5634765625
0.0215,2.40234375,0.5205078125,-4.00390625
0.022,1.6416015625,1.5615234375,-4.32421875
0.0225,1.0009765625,2.482421875,-4.5244140625
0.023,0.16015625,3.0830078125,-4.32421875
0.0235,-0.48046875,3.68359375,-4.2841796875
0.024,-1.201171875,3.8837890625,-3.7236328125
0.0245,-1.8818359375,4.32421875,-3.4033203125
0.025,-2.8828125,4.724609375,-2.6826171875
0.0255,-3.36328125,4.6044921875,-2.08203125
0.026,-3.7236328125,4.404296875,-1.4814453125
0.0265,-3.8837890625,3.84375,-0.6806640625
0.027,-4.0439453125,3.1630859375,0.2802734375
0.0275,-4.1640625,2.5224609375,1.2412109375
0.028,-4.3642578125,1.76171875,2.2421875
0.0285,-3.9638671875,0.9609375,2.6826171875
0.029,-3.8037109375,0.240234375,3.3232421875
0.0295,-3.0830078125,-0.640625,3.4033203125
0.03,-2.5625,-1.521484375,3.8037109375
0.0305,-1.6015625,-2.72265625,3.9638671875
0.031,-0.80078125,-3.5234375,3.923828125
0.0315,0.1201171875,-3.9638671875,3.5634765625
0.032,0.640625,-4.32421875,3.2431640625
0.0325,1.4814453125,-4.4443359375,2.5224609375
0.033,2.1220703125,-4.6845703125,2.0419921875
0.0335,3.0029296875,-4.9248046875,1.4013671875
0.034,3.1630859375,-4.4443359375,0.720703125
0.0345,3.36328125,-4.32421875,0.2001953125
0.035,3.203125,-3.5634765625,-0.640625
0.0355,3.3232421875,-2.8828125,-1.361328125
0.036,3.3232421875,-2.08203125,-2.2421875
0.0365,3.36328125,-1.521484375,-2.8828125
0.037,2.8828125,-0.80078125,-3.203125
0.0375,2.72265625,-0.3203125,-3.5634765625
0.038,2.0419921875,0.560546875,-3.68359375
0.0385,1.6416015625,1.3212890625,-4.0439453125
0.039,0.880859375,2.3623046875,-4.244140625
0.0395,0.16015625,2.8828125,-4.1240234375
0.04,-0.5205078125,3.4033203125,-3.9638671875
0.0405,-1.0009765625,3.603515625,-3.603515625
0.041,-1.681640625,3.923828125,-3.203125
0.0415,-2.40234375,4.244140625,-2.7626953125
0.042,-3.0830078125,4.484375,-2.2421875
0.0425,-3.283203125,4.083984375,-1.6015625
0.043,-3.68359375,4.083984375,-1.1611328125
0.0435,-3.6435546875,3.2431640625,-0.2802734375
0.044,-4.00390625,2.8828125,0.6005859375
0.0445,-4.0439453125,2.0419921875,1.6015625
0.045,-4.1640625,1.5615234375,2.2421875
0.0455,-3.84375,0.7607421875,2.7626953125
0.046,-3.5634765625,0.1201171875,3.1630859375
0.0465,-2.8828125,-0.9208984375,3.4833984375
0.047,-2.2822265625,-1.9619140625,3.8837890625
0.0475,-1.361328125,-3.04296875,4.083984375
0.048,-0.5205078125,-3.603515625,3.8037109375
0.0485,0.2001953125,-4.1640625,3.6435546875
0.049,0.9609375,-4.4443359375,3.04296875
0.0495,1.841796875,-4.7646484375,2.5224609375
0.05,2.5625,-5.0048828125,1.921875
0.0505,3.2431640625,-5.0849609375,1.201171875
0.051,3.36328125,-4.5244140625,0.4404296875
0.0515,3.5634765625,-4.1640625,-0.2802734375
0.052,3.5234375,-3.0830078125,-1.3212890625
0.0525,3.6435546875,-2.5625,-2.08203125
0.053,3.6435546875,-1.6015625,-3.0830078125
0.0535,3.3232421875,-0.8408203125,-3.5634765625
0.054,2.8427734375,-0.16015625,-3.84375
0.0545,2.2822265625,0.6806640625,-4.0439453125
0.055,1.4814453125,1.7216796875,-4.2841796875
0.0555,0.80078125,2.6025390625,-4.4443359375
0.056,0.0,3.443359375,-4.4443359375
0.0565,-0.880859375,3.763671875,-3.923828125
0.057,-1.361328125,4.083984375,-3.7236328125
0.0575,-2.2822265625,4.2041015625,-2.9228515625
0.058,-2.8828125,4.4443359375,-2.4423828125
0.0585,-3.4833984375,4.484375,-1.8017578125
0.059,-3.84375,4.2841796875,-1.201171875
0.0595,-3.84375,3.763671875,-0.6005859375
0.06,-3.923828125,3.36328125,0.080078125
0.0605,-3.923828125,2.40234375,1.0810546875
0.061,-4.00390625,1.921875,1.76171875
0.0615,-4.00390625,1.12109375,2.6025390625
0.062,-3.603515625,0.400390625,2.9228515625
0.0625,-3.36328125,-0.2802734375,3.36328125
0.063,-2.72265625,-1.0810546875,3.5234375
0.0635,-2.08203125,-2.001953125,3.84375
0.064,-1.2412109375,-2.962890625,3.923828125
0.0645,-0.5205078125,-3.763671875,3.9638671875
0.065,0.3203125,-4.1240234375,3.5234375
0.0655,0.8408203125,-4.5244140625,3.3232421875
0.066,1.841796875,-4.724609375,2.482421875
0.0665,2.40234375,-5.0849609375,2.1220703125
0.067,3.1630859375,-5.125,1.361328125
0.0675,3.5234375,-4.8046875,0.640625
0.068,3.6435546875,-4.32421875,0.0
0.0685,3.7236328125,-3.7236328125,-0.9208984375
0.069,3.84375,-2.802734375,-2.001953125
0.0695,3.84375,-2.1220703125,-2.72265625
0.07,3.8037109375,-1.2412109375,-3.68359375
0.0705,3.1630859375,-0.3603515625,-3.923828125
0.071,2.8427734375,0.4404296875,-4.3642578125
0.0715,1.921875,1.521484375,-4.5244140625
0.072,1.201171875,2.5625,-4.8447265625
0.0725,0.240234375,3.4833984375,-4.6845703125
0.073,-0.640625,4.1640625,-4.6044921875
0.0735,-1.44140625,4.32421875,-3.923828125
0.074,-2.08203125,4.64453125,-3.5634765625
0.0745,-3.203125,4.8447265625,-2.5625
0.075,-3.8037109375,4.8046875,-1.8818359375
0.0755,-4.3642578125,4.724609375,-1.1611328125
0.076,-4.4443359375,4.2041015625,-0.3603515625
0.0765,-4.404296875,3.5234375,0.4404296875
0.077,-4.3642578125,2.642578125,1.4013671875
0.0775,-4.4443359375,1.7216796875,2.40234375
0.078,-4.083984375,0.9208984375,2.9228515625
0.0785,-4.00390625,0.1201171875,3.68359375
0.079,-3.203125,-0.80078125,3.763671875
0.0795,-2.8427734375,-1.4013671875,4.00390625
0.08,-1.76171875,-2.6025390625,4.1240234375
0.0805,-1.0009765625,-3.5234375,4.2041015625
0.081,0.0,-4.2041015625,3.8837890625
0.0815,0.6806640625,-4.6845703125,3.68359375
0.082,1.3212890625,-4.7646484375,3.04296875
0.0825,1.9619140625,-5.044921875,2.5625
0.083,3.0029296875,-5.28515625,1.7216796875
0.0835,3.36328125,-5.0849609375,1.0810546875
0.084,3.8837890625,-5.0048828125,0.400390625
0.0845,3.84375,-4.244140625,-0.400390625
0.085,3.923828125,-3.8037109375,-1.041015625
0.0855,3.84375,-2.7626953125,-2.0419921875
0.086,3.9638671875,-2.08203125,-2.9228515625
0.0865,3.68359375,-1.28125,-3.5634765625
0.087,3.5234375,-0.5205078125,-4.2041015625
0.0875,2.72265625,0.4404296875,-4.32421875
0.088,2.3623046875,1.1611328125,-4.6845703125
0.0885,1.28125,2.482421875,-4.884765625
0.089,0.6005859375,3.3232421875,-5.0048828125
0.0895,-0.5205078125,4.1240234375,-4.7646484375
0.09,-1.2412109375,4.564453125,-4.4443359375
0.0905,-1.9619140625,4.724609375,-3.84375
0.091,-2.802734375,4.96484375,-3.203125
0.0915,-3.923828125,5.3251953125,-2.322265625
0.092,-4.32421875,5.044921875,-1.4814453125
0.0925,-4.8447265625,4.9248046875,-0.720703125
0.093,-4.7646484375,4.0439453125,0.240234375
0.0935,-4.8447265625,3.36328125,1.0810546875
0.094,-4.8046875,2.2021484375,2.2421875
0.0945,-4.8447265625,1.28125,3.2431640625
0.095,-4.244140625,0.2802734375,3.8037109375
0.0955,-4.00390625,-0.640625,4.404296875
0.096,-3.04296875,-1.4814453125,4.32421875
0.0965,-2.40234375,-2.40234375,4.6044921875
0.097,-1.1611328125,-3.84375,4.724609375
0.0975,-0.2001953125,-4.564453125,4.484375
0.098,0.80078125,-5.125,4.0439453125
0.0985,1.5615234375,-5.4453125,3.5234375
0.099,2.3623046875,-5.4853515625,2.6826171875
0.0995,3.1630859375,-5.6455078125,1.921875
0.1,4.1240234375,-5.7255859375,0.9609375
0.1005,4.2841796875,-5.044921875,0.0400390625
0.101,4.564453125,-4.8447265625,-0.6005859375
0.1015,4.2041015625,-3.763671875,-1.44140625
0.102,4.1640625,-3.0830078125,-2.2021484375
0.1025,4.0439453125,-1.8818359375,-3.283203125
0.103,3.923828125,-1.0810546875,-4.00390625
0.1035,3.3232421875,-0.16015625,-4.4443359375
0.104,2.962890625,0.6005859375,-4.6845703125
0.1045,2.1220703125,1.4013671875,-4.6845703125
0.105,1.521484375,2.2421875,-4.884765625
0.1055,0.48046875,3.4833984375,-5.125
0.106,-0.48046875,4.0439453125,-4.6845703125
0.1065,-1.2412109375,4.6044921875,-4.5244140625
0.107,-1.921875,4.724609375,-3.8837890625
0.1075,-2.6025390625,4.884765625,-3.36328125
0.108,-3.4833984375,5.1650390625,-2.5625
0.1085,-4.3642578125,5.365234375,-1.8017578125
0.109,-4.5244140625,4.724609375,-1.0009765625
0.1095,-4.884765625,4.6044921875,-0.3603515625
0.11,-4.6845703125,3.5234375,0.6806640625
0.1105,-4.8447265625,2.9228515625,1.5615234375
0.111,-4.8447265625,1.76171875,2.7626953125
0.1115,-4.6845703125,1.0009765625,3.4833984375
0.112,-4.1640625,0.0,4.00390625
0.1125,-3.7236328125,-0.8408203125,4.3642578125
0.113,-2.8427734375,-1.841796875,4.484375
0.1135,-2.0419921875,-2.8828125,4.724609375
0.114,-0.9208984375,-4.2841796875,4.884765625
0.1145,0.2001953125,-4.884765625,4.3642578125
0.115,1.0009765625,-5.4453125,4.1240234375
0.1155,1.921875,-5.6455078125,3.2431640625
0.116,2.8427734375,-5.7255859375,2.482421875
0.1165,3.68359375,-5.8056640625,1.5615234375
0.117,4.484375,-5.845703125,0.6806640625
0.1175,4.5244140625,-5.0048828125,-0.3603515625
0.118,4.724609375,-4.64453125,-1.0009765625
0.1185,4.484375,-3.283203125,-2.2421875
0.119,4.404296875,-2.5625,-2.962890625
0.1195,4.244140625,-1.3212890625,-4.1240234375
0.12,3.84375,-0.3603515625,-4.64453125
0.1205,3.1630859375,0.6005859375,-4.9248046875
0.121,2.482421875,1.361328125,-5.0849609375
0.1215,1.44140625,2.5224609375,-5.125
0.122,0.640625,3.3232421875,-5.125
0.1225,-0.4404296875,4.404296875,-5.125
0.123,-1.361328125,4.64453125,-4.4443359375
0.1235,-1.9619140625,5.0048828125,-4.1640625
0.124,-2.8828125,5.0849609375,-3.1630859375
0.1245,-3.5234375,5.125,-2.5625
0.125,-4.244140625,5.1650390625,-1.7216796875
0.1255,-4.724609375,4.96484375,-1.0009765625
0.126,-4.724609375,4.2841796875,-0.2001953125
0.1265,-4.7646484375,3.84375,0.4404296875
0.127,-4.564453125,2.6826171875,1.4814453125
0.1275,-4.564453125,2.08203125,2.2021484375
0.128,-4.5244140625,1.12109375,3.203125
0.1285,-4.0439453125,0.2802734375,3.5634765625
0.129,-3.7236328125,-0.5205078125,4.0439453125
0.1295,-2.962890625,-1.3212890625,4.1240234375
0.13,-2.2822265625,-2.2822265625,4.404296875
0.1305,-1.3212890625,-3.36328125,4.484375
0.131,-0.5205078125,-4.2841796875,4.484375
0.1315,0.48046875,-4.6845703125,3.8837890625
0.132,1.041015625,-5.125,3.763671875
0.1325,2.0419921875,-5.1650390625,2.8427734375
0.133,2.6826171875,-5.4853515625,2.3623046875
0.1335,3.5634765625,-5.60546875,1.4814453125
0.134,3.9638671875,-5.28515625,0.6806640625
0.1345,4.1240234375,-4.724609375,-0.16015625
0.135,4.1640625,-4.2041015625,-0.9208984375
0.1355,4.1640625,-3.0830078125,-2.08203125
0.136,4.1640625,-2.40234375,-2.8427734375
0.1365,4.1240234375,-1.361328125,-3.8837890625
0.137,3.5234375,-0.4404296875,-4.244140625
0.1375,3.123046875,0.400390625,-4.64453125
0.138,2.2421875,1.4013671875,-4.8046875
0.1385,1.4013671875,2.482421875,-5.0849609375
0.139,0.4404296875,3.36328125,-5.0048828125
0.1395,-0.5205078125,4.244140625,-4.9248046875
0.14,-1.4013671875,4.5244140625,-4.2041015625
0.1405,-2.001953125,4.8447265625,-3.8837890625
0.141,-3.123046875,4.96484375,-2.802734375
0.1415,-3.6435546875,5.044921875,-2.2421875
0.142,-4.32421875,5.044921875,-1.4013671875
0.1425,-4.5244140625,4.484375,-0.640625
0.143,-4.5244140625,3.8837890625,0.1201171875
0.1435,-4.484375,3.04296875,0.9609375
0.144,-4.484375,2.1220703125,2.001953125
0.1445,-4.244140625,1.4013671875,2.6025390625
0.145,-4.2041015625,0.560546875,3.443359375
0.1455,-3.4833984375,-0.3603515625,3.603515625
0.146,-3.203125,-1.0009765625,3.9638671875
0.1465,-2.2021484375,-2.08203125,3.9638671875
0.147,-1.6015625,-2.962890625,4.2041015625
0.1475,-0.6005859375,-3.84375,4.00390625
0.148,0.2001953125,-4.3642578125,3.84375
0.1485,0.9208984375,-4.5244140625,3.3232421875
0.149,1.44140625,-4.8447265625,3.0029296875
0.1495,2.40234375,-5.0048828125,2.162109375
0.15,2.8427734375,-5.0849609375,1.7216796875
0.1505,3.5234375,-5.125,1.0009765625
0.151,3.5634765625,-4.5244140625,0.2802734375
0.1515,3.763671875,-4.2041015625,-0.3603515625
0.152,3.68359375,-3.283203125,-1.28125
0.1525,3.84375,-2.72265625,-2.162109375
0.153,3.7236328125,-1.8818359375,-2.8828125
0.1535,3.7236328125,-1.201171875,-3.603515625
0.154,3.04296875,-0.3203125,-3.84375
0.1545,2.802734375,0.3603515625,-4.32421875
0.155,1.841796875,1.521484375,-4.5244140625
0.1555,1.28125,2.40234375,-4.8447265625
0.156,0.2802734375,3.36328125,-4.6845703125
0.1565,-0.5205078125,3.8837890625,-4.484375
0.157,-1.2412109375,4.2041015625,-4.00390625
0.1575,-1.9619140625,4.484375,-3.5634765625
0.158,-2.962890625,4.8447265625,-2.8427734375
0.1585,-3.443359375,4.8046875,-2.2021484375
0.159,-4.083984375,4.8046875,-1.4814453125
0.1595,-4.1240234375,4.1240234375,-0.6806640625
0.16,-4.32421875,3.7236328125,0.080078125
0.1605,-4.244140625,2.642578125,1.201171875
0.161,-4.4443359375,2.0419921875,2.0419921875
0.1615,-4.1640625,1.201171875,2.72265625
0.162,-3.9638671875,0.400390625,3.3232421875
0.1625,-3.283203125,-0.5205078125,3.5234375
0.163,-2.8828125,-1.3212890625,3.84375
0.1635,-1.8818359375,-2.5625,4.00390625
0.164,-1.12109375,-3.2431640625,4.0439453125
0.1645,-0.2001953125,-4.00390625,3.84375
0.165,0.5205078125,-4.32421875,3.443359375
0.1655,1.12109375,-4.5244140625,3.04296875
0.166,1.921875,-4.6845703125,2.322265625
0.1665,2.6826171875,-4.9248046875,1.76171875
0.167,3.04296875,-4.724609375,1.12109375
0.1675,3.443359375,-4.6044921875,0.5205078125
0.168,3.2431640625,-3.84375,-0.2001953125
0.1685,3.443359375,-3.5634765625,-0.80078125
0.169,3.36328125,-2.5224609375,-1.8017578125
0.1695,3.4833984375,-2.08203125,-2.4423828125
0.17,3.283203125,-1.28125,-3.0830078125
0.1705,3.0029296875,-0.7607421875,-3.36328125
0.171,2.5224609375,0.0400390625,-3.68359375
0.1715,2.0419921875,0.7607421875,-3.9638671875
0.172,1.4013671875,1.841796875,-4.32421875
0.1725,0.720703125,2.5224609375,-4.2841796875
0.173,0.0400390625,3.2431640625,-4.32421875
0.1735,-0.6806640625,3.4833984375,-3.8837890625
0.174,-1.2412109375,3.923828125,-3.7236328125
0.1745,-2.08203125,4.1640625,-3.0830078125
0.175,-2.72265625,4.5244140625,-2.72265625
0.1755,-3.203125,4.484375,-2.08203125
0.176,-3.5634765625,4.3642578125,-1.5615234375
0.1765,-3.68359375,3.763671875,-0.7607421875
0.177,-3.8837890625,3.3232421875,0.0400390625
0.1775,-4.1240234375,2.5224609375,1.12109375
0.178,-4.2041015625,2.001953125,1.8017578125
0.1785,-4.1640625,1.1611328125,2.6025390625
0.179,-3.7236328125,0.400390625,2.962890625
0.1795,-3.36328125,-0.5205078125,3.443359375
0.18,-2.5625,-1.44140625,3.7236328125
0.1805,-1.8818359375,-2.5625,4.083984375
0.181,-0.9609375,-3.283203125,3.8837890625
0.1815,-0.240234375,-4.00390625,3.8837890625
0.182,0.560546875,-4.1640625,3.283203125
0.1825,1.201171875,-4.5244140625,2.962890625
0.183,2.2421875,-4.884765625,2.162109375
0.1835,2.8427734375,-4.96484375,1.521484375
0.184,3.2431640625,-4.6845703125,0.80078125
0.1845,3.4033203125,-4.32421875,0.2001953125
0.185,3.36328125,-3.5634765625,-0.640625
0.1855,3.443359375,-2.8828125,-1.4814453125
0.186,3.5634765625,-2.08203125,-2.5224609375
0.1865,3.3232421875,-1.44140625,-2.962890625
0.187,3.1630859375,-0.720703125,-3.5634765625
0.1875,2.482421875,0.0,-3.6435546875
0.188,2.1220703125,0.7607421875,-3.923828125
0.1885,1.28125,1.8017578125,-4.1240234375
0.189,0.640625,2.642578125,-4.3642578125
0.1895,-0.2802734375,3.1630859375,-3.9638671875
0.19,-0.720703125,3.603515625,-3.8837890625
0.1905,-1.3212890625,3.68359375,-3.36328125
0.191,-1.9619140625,3.9638671875,-3.0029296875
0.1915,-2.802734375,4.32421875,-2.40234375
0.192,-3.123046875,4.2041015625,-1.8818359375
0.1925,-3.5234375,4.1240234375,-1.361328125
0.193,-3.4833984375,3.5634765625,-0.80078125
0.1935,-3.68359375,3.1630859375,0.0
0.194,-3.7236328125,2.482421875,0.7607421875
0.1945,-3.9638671875,1.921875,1.5615234375
0.195,-3.8037109375,1.28125,2.08203125
0.1955,-3.8037109375,0.7607421875,2.6826171875
0.196,-3.203125,0.0,2.9228515625
0.1965,-2.8828125,-0.80078125,3.443359375
0.197,-2.08203125,-1.9619140625,3.7236328125
0.1975,-1.44140625,-2.72265625,3.84375
0.198,-0.640625,-3.4833984375,3.7236328125
0.1985,0.0,-3.8837890625,3.5234375
0.199,0.720703125,-4.2041015625,3.1630859375
0.1995,1.4814453125,-4.564453125,2.6826171875
0.2,2.40234375,-5.0048828125,2.0419921875
0.2005,2.802734375,-4.7646484375,1.4013671875
0.201,3.3232421875,-4.7646484375,0.80078125
0.2015,3.283203125,-4.00390625,0.0
0.202,3.5234375,-3.5634765625,-0.880859375
0.2025,3.603515625,-2.6826171875,-1.9619140625
0.203,3.763671875,-2.08203125,-2.7626953125
0.2035,3.36328125,-1.201171875,-3.3232421875
0.204,3.1630859375,-0.5205078125,-3.763671875
0.2045,2.4423828125,0.4404296875,-3.923828125
0.205,1.921875,1.361328125,-4.32421875
0.2055,0.9609375,2.5625,-4.6044921875
0.206,0.16015625,3.2431640625,-4.404296875
0.2065,-0.640625,3.8037109375,-4.2041015625
0.207,-1.3212890625,4.0439453125,-3.7236328125
0.2075,-2.08203125,4.2041015625,-3.123046875
0.208,-2.8427734375,4.484375,-2.482421875
0.2085,-3.68359375,4.724609375,-1.8017578125
0.209,-3.8037109375,4.1640625,-1.0810546875
0.2095,-4.0439453125,4.00390625,-0.6005859375
0.21,-3.8837890625,3.04296875,0.3203125
0.2105,-4.00390625,2.482421875,1.12109375
0.211,-4.00390625,1.521484375,2.1220703125
0.2115,-3.923828125,0.880859375,2.6826171875
0.212,-3.5634765625,0.2001953125,3.0830078125
0.2125,-3.203125,-0.48046875,3.36328125
0.213,-2.5224609375,-1.2412109375,3.4833984375
0.2135,-1.921875,-2.1220703125,3.763671875
0.214,-1.041015625,-3.203125,3.9638671875
0.2145,-0.240234375,-3.68359375,3.5634765625
0.215,0.400390625,-4.2041015625,3.5234375
0.2155,1.0810546875,-4.32421875,2.8828125
0.216,1.681640625,-4.6044921875,2.5224609375
0.2165,2.5224609375,-4.8447265625,1.841796875
0.217,3.123046875,-4.96484375,1.2412109375
0.2175,3.3232421875,-4.5244140625,0.5205078125
0.218,3.5234375,-4.32421875,0.0400390625
0.2185,3.4833984375,-3.443359375,-0.9609375
0.219,3.68359375,-2.962890625,-1.681640625
0.2195,3.7236328125,-2.08203125,-2.802734375
0.22,3.5634765625,-1.361328125,-3.283203125
0.2205,3.2431640625,-0.560546875,-3.84375
0.221,2.72265625,0.240234375,-4.0439453125
0.2215,2.08203125,1.12109375,-4.3642578125
0.222,1.361328125,2.2421875,-4.64453125
0.2225,0.5205078125,3.2431640625,-4.8447265625
0.223,-0.5205078125,3.763671875,-4.404296875
0.2235,-1.0810546875,4.32421875,-4.244140625
0.224,-2.001953125,4.484375,-3.443359375
0.2245,-2.7626953125,4.7646484375,-2.9228515625
0.225,-3.6435546875,4.96484375,-2.162109375
0.2255,-4.1640625,4.8447265625,-1.361328125
0.226,-4.2841796875,4.32421875,-0.640625
0.2265,-4.4443359375,3.8037109375,0.1201171875
0.227,-4.3642578125,2.6826171875,1.28125
0.2275,-4.404296875,1.9619140625,2.001953125
0.228,-4.404296875,1.0810546875,3.0830078125
0.2285,-3.8837890625,0.2001953125,3.4833984375
0.229,-3.5634765625,-0.6005859375,3.84375
