wavelength,x,y,z
0.0,-4.9998779296875,-17.612182617188,22.306762695312
0.0005,0.3253173828125,-20.494995117188,20.024536132812
0.001,4.9298095703125,-22.456909179688,17.662231445312
0.0015,10.295043945312,-24.258666992188,13.818481445312
0.002,13.898559570312,-24.218627929688,10.375122070312
0.0025,17.502075195312,-23.497924804688,6.0909423828125
0.003,19.584106445312,-22.136596679688,2.6475830078125
0.0035,22.186645507812,-20.014526367188,-2.1170654296875
0.004,24.308715820312,-17.251831054688,-7.0819091796875
0.0045,23.988403320312,-12.607299804688,-11.406127929688
0.005,24.508911132812,-9.7645263671875,-15.009643554688
0.0055,22.907348632812,-5.6405029296875,-17.411987304688
0.006,21.185668945312,-1.2762451171875,-20.094604492188
0.0065,18.783325195312,3.3682861328125,-22.216674804688
0.007,15.460083007812,8.9737548828125,-24.538940429688
0.0075,11.055786132812,12.617309570312,-23.778198242188
0.008,7.2921142578125,16.220825195312,-23.658081054688
0.0085,3.4483642578125,18.022583007812,-21.656127929688
0.009,-1.6365966796875,20.905395507812,-19.534057617188
0.0095,-6.4012451171875,22.867309570312,-16.971557617188
0.01,-11.566284179688,23.868286132812,-12.687377929688
0.0105,-14.769409179688,23.988403320312,-9.7244873046875
0.011,-17.892456054688,22.667114257812,-5.3201904296875
0.0115,-19.934448242188,21.145629882812,-1.7567138671875
0.012,-22.216674804688,19.023559570312,2.7276611328125
0.0125,-24.218627929688,15.900512695312,7.9327392578125
0.013,-23.417846679688,11.255981445312,11.816528320312
0.0135,-24.018432617188,8.4532470703125,15.219848632812
0.014,-22.096557617188,4.6094970703125,17.141723632812
0.0145,-20.414916992188,0.0050048828125,20.144653320312
0.015,-17.772338867188,-4.5194091796875,21.986450195312
0.0155,-14.168823242188,-10.004760742188,23.828247070312
0.016,-10.285034179688,-13.167846679688,23.107543945312
0.0165,-6.1610107421875,-16.531127929688,22.386840820312
0.017,-2.2772216796875,-18.453002929688,20.344848632812
0.0175,2.4073486328125,-21.135620117188,18.543090820312
0.018,7.5723876953125,-23.017456054688,15.380004882812
0.0185,12.136840820312,-23.177612304688,11.055786132812
0.019,15.299926757812,-23.698120117188,8.5333251953125
0.0195,18.022583007812,-21.856323242188,3.9688720703125
0.02,20.464965820312,-20.454956054688,0.0850830078125
0.0205,22.266723632812,-18.172729492188,-4.0789794921875
0.021,24.108520507812,-14.689331054688,-9.3240966796875
0.0215,23.187622070312,-10.525268554688,-12.767456054688
0.022,23.387817382812,-7.4422607421875,-16.090698242188
0.0225,21.265747070312,-3.4783935546875,-17.972534179688
0.023,19.864379882812,1.2462158203125,-21.175659179688
0.0235,16.461059570312,6.1710205078125,-22.697143554688
0.024,12.617309570312,11.175903320312,-23.858276367188
0.0245,9.2940673828125,14.218872070312,-23.457885742188
0.025,4.6094970703125,17.221801757812,-21.976440429688
0.0255,0.4854736328125,19.223754882812,-19.934448242188
0.026,-4.0389404296875,21.826293945312,-18.172729492188
0.0265,-9.5643310546875,23.668090820312,-14.569213867188
0.027,-13.568237304688,23.147583007812,-10.124877929688
0.0275,-16.651245117188,23.547973632812,-7.4822998046875
0.028,-19.093627929688,21.385864257812,-2.7977294921875
0.0285,-21.896362304688,19.864379882812,1.5665283203125
0.029,-23.057495117188,16.821411132812,5.8106689453125
0.0295,-24.498901367188,13.177856445312,10.975708007812
0.03,-23.578002929688,9.1739501953125,14.098754882812
0.0305,-23.137573242188,5.5303955078125,17.301879882812
0.031,-20.775268554688,1.2862548828125,19.143676757812
0.0315,-19.213745117188,-3.5184326171875,22.426879882812
0.032,-15.249877929688,-8.6033935546875,23.467895507812
0.0325,-10.965698242188,-13.127807617188,23.708129882812
0.033,-8.0028076171875,-15.890502929688,23.547973632812
0.0335,-2.5574951171875,-18.853393554688,21.025512695312
0.034,1.8468017578125,-20.975463867188,19.023559570312
0.0345,6.5313720703125,-23.097534179688,16.541137695312
0.035,11.656372070312,-24.538940429688,12.937622070312
0.0355,15.380004882812,-23.578002929688,8.2930908203125
0.036,18.302856445312,-23.417846679688,5.2901611328125
0.0365,20.665161132812,-20.975463867188,0.4454345703125
0.037,23.507934570312,-19.293823242188,-4.1190185546875
0.0375,24.028442382812,-15.410034179688,-8.6033935546875
0.038,24.909301757812,-11.806518554688,-13.287963867188
0.0385,23.988403320312,-8.0428466796875,-16.010620117188
0.039,22.587036132812,-3.7186279296875,-19.093627929688
0.0395,20.104614257812,0.8458251953125,-21.015502929688
0.04,17.942504882812,5.8907470703125,-23.978393554688
0.0405,13.778442382812,10.735473632812,-24.739135742188
0.041,9.1739501953125,14.819458007812,-24.058471679688
0.0415,6.2110595703125,17.301879882812,-23.698120117188
0.042,0.5655517578125,20.064575195312,-20.815307617188
0.0425,-3.9989013671875,22.466918945312,-18.853393554688
0.043,-9.0037841796875,23.868286132812,-15.249877929688
0.0435,-13.608276367188,24.949340820312,-11.886596679688
0.044,-16.971557617188,23.748168945312,-7.3621826171875
0.0445,-19.574096679688,22.867309570312,-3.7987060546875
0.045,-21.776245117188,20.344848632812,0.9259033203125
0.0455,-24.538940429688,18.222778320312,5.8106689453125
0.046,-24.418823242188,13.818481445312,10.214965820312
0.0465,-24.859252929688,10.094848632812,14.419067382812
0.047,-23.898315429688,6.7716064453125,16.781372070312
0.0475,-21.896362304688,1.8868408203125,19.744262695312
0.048,-19.574096679688,-2.4774169921875,21.826293945312
0.0485,-16.651245117188,-7.8426513671875,24.068481445312
0.049,-12.687377929688,-12.286987304688,24.588989257812
0.0495,-8.0028076171875,-15.970581054688,23.547973632812
0.05,-4.7196044921875,-18.052612304688,22.466918945312
0.0505,0.7657470703125,-20.575073242188,19.664184570312
0.051,5.4102783203125,-23.217651367188,17.742309570312
0.0515,10.455200195312,-23.858276367188,13.418090820312
0.052,14.379028320312,-24.619018554688,10.295043945312
0.0525,17.421997070312,-23.377807617188,6.0909423828125
0.053,20.024536132812,-22.176635742188,2.2071533203125
0.0535,22.146606445312,-19.734252929688,-2.3973388671875
0.054,24.548950195312,-17.171752929688,-7.4022216796875
0.0545,24.188598632812,-12.807495117188,-11.486206054688
0.055,24.348754882812,-9.1239013671875,-15.329956054688
0.0555,23.227661132812,-6.1209716796875,-17.291870117188
0.056,20.945434570312,-0.9158935546875,-20.214721679688
0.0565,18.863403320312,3.6485595703125,-22.657104492188
0.057,15.059692382812,8.9737548828125,-24.218627929688
0.0575,11.496215820312,12.857543945312,-24.578979492188
0.058,7.0118408203125,16.300903320312,-23.377807617188
0.0585,3.3282470703125,18.422973632812,-21.856323242188
0.059,-1.7967529296875,20.905395507812,-19.413940429688
0.0595,-6.9217529296875,23.668090820312,-17.211791992188
0.06,-11.686401367188,23.828247070312,-12.567260742188
0.0605,-15.329956054688,24.348754882812,-9.6444091796875
0.061,-17.972534179688,22.907348632812,-5.5604248046875
0.0615,-20.655151367188,21.385864257812,-1.2362060546875
0.062,-22.777221679688,19.023559570312,3.2882080078125
0.0625,-24.779174804688,15.820434570312,8.6134033203125
0.063,-24.298706054688,11.536254882812,12.417114257812
0.0635,-24.218627929688,7.8126220703125,16.060668945312
0.064,-22.777221679688,4.6094970703125,17.902465820312
0.0645,-20.494995117188,-0.7957763671875,20.985473632812
0.065,-18.012573242188,-5.7205810546875,23.347778320312
0.0655,-13.808471679688,-10.925659179688,24.308715820312
0.066,-10.405151367188,-14.288940429688,24.388793945312
0.0665,-5.6805419921875,-17.452026367188,22.787231445312
0.067,-1.3563232421875,-19.734252929688,20.865356445312
0.0675,3.4884033203125,-22.136596679688,18.583129882812
0.068,9.1339111328125,-24.699096679688,15.580200195312
0.0685,13.418090820312,-24.218627929688,10.855590820312
0.069,17.021606445312,-24.418823242188,7.8126220703125
0.0695,19.343872070312,-22.657104492188,3.4483642578125
0.07,22.266723632812,-20.895385742188,-1.3162841796875
0.0705,23.948364257812,-18.172729492188,-5.7606201171875
0.071,25.509887695312,-14.409057617188,-11.165893554688
0.0715,24.789184570312,-10.365112304688,-14.409057617188
0.072,24.188598632812,-6.4012451171875,-17.972534179688
0.0725,22.066528320312,-2.5574951171875,-19.734252929688
0.073,19.984497070312,2.6475830078125,-22.817260742188
0.0735,16.541137695312,8.1729736328125,-24.939331054688
0.074,11.896606445312,13.017700195312,-25.019409179688
0.0745,8.8135986328125,16.100708007812,-25.019409179688
0.075,3.6485595703125,18.903442382812,-22.697143554688
0.0755,-1.1561279296875,21.345825195312,-20.494995117188
0.076,-5.7205810546875,23.347778320312,-18.092651367188
0.0765,-11.606323242188,25.589965820312,-14.288940429688
0.077,-15.289916992188,24.468872070312,-9.6844482421875
0.0775,-18.653198242188,24.508911132812,-6.4012451171875
0.078,-20.695190429688,22.066528320312,-1.9969482421875
0.0785,-23.698120117188,20.264770507812,2.9678955078125
0.079,-24.779174804688,16.741333007812,7.6124267578125
0.0795,-25.700073242188,12.577270507812,12.777465820312
0.08,-25.059448242188,9.1339111328125,15.700317382812
0.0805,-23.698120117188,4.5294189453125,18.783325195312
0.081,-21.375854492188,0.4454345703125,20.665161132812
0.0815,-19.293823242188,-4.5594482421875,23.427856445312
0.082,-15.450073242188,-10.204956054688,25.309692382812
0.0825,-10.445190429688,-14.369018554688,24.428833007812
0.083,-7.5623779296875,-17.251831054688,24.468872070312
0.0835,-2.0369873046875,-19.694213867188,21.465942382812
0.084,2.6876220703125,-22.296752929688,19.504028320312
0.0845,7.3321533203125,-23.858276367188,16.501098632812
0.085,12.897583007812,-25.579956054688,12.777465820312
0.0855,16.180786132812,-24.378784179688,8.3731689453125
0.086,19.383911132812,-23.858276367188,4.6094970703125
0.0865,21.265747070312,-21.335815429688,0.2852783203125
0.087,24.148559570312,-19.534057617188,-4.5594482421875
0.0875,24.989379882812,-15.730346679688,-9.3240966796875
0.088,25.229614257812,-11.366088867188,-13.968627929688
0.0885,24.909301757812,-8.5233154296875,-16.611206054688
0.089,22.747192382812,-3.4783935546875,-19.494018554688
0.0895,20.625122070312,0.8057861328125,-21.656127929688
0.09,17.942504882812,5.8507080078125,-23.858276367188
0.0905,14.218872070312,11.376098632812,-25.660034179688
0.091,9.1739501953125,15.019653320312,-24.298706054688
0.0915,6.0909423828125,17.782348632812,-24.058471679688
0.092,0.7657470703125,20.024536132812,-20.975463867188
0.0925,-4.0389404296875,22.907348632812,-19.413940429688
0.093,-8.9237060546875,23.988403320312,-15.450073242188
0.0935,-13.968627929688,25.269653320312,-11.806518554688
0.094,-16.891479492188,24.348754882812,-8.0028076171875
0.0945,-19.894409179688,22.987426757812,-3.5985107421875
0.095,-21.736206054688,20.665161132812,0.6456298828125
0.0955,-24.498901367188,18.422973632812,5.6104736328125
0.096,-25.139526367188,14.379028320312,10.375122070312
0.0965,-24.859252929688,9.8145751953125,14.659301757812
0.097,-24.619018554688,7.2120361328125,17.021606445312
0.0975,-21.976440429688,1.7667236328125,19.824340820312
0.098,-20.134643554688,-2.5975341796875,22.426879882812
0.0985,-16.651245117188,-7.6824951171875,23.948364257812
0.099,-13.087768554688,-12.687377929688,25.469848632812
0.0995,-8.2030029296875,-16.050659179688,23.908325195312
0.1,-4.4793701171875,-18.733276367188,22.867309570312
0.1005,0.8057861328125,-20.815307617188,19.864379882812
0.101,5.8907470703125,-23.938354492188,18.102661132812
0.1015,10.735473632812,-24.378784179688,13.698364257812
0.102,15.179809570312,-25.099487304688,10.054809570312
0.1025,17.902465820312,-24.178588867188,6.4913330078125
0.103,20.825317382812,-22.296752929688,1.6466064453125
0.1035,22.907348632812,-20.014526367188,-2.7576904296875
0.104,25.029418945312,-17.171752929688,-7.8826904296875
0.1045,25.429809570312,-13.207885742188,-12.327026367188
0.105,24.709106445312,-8.7635498046875,-16.210815429688
0.1055,23.988403320312,-5.8807373046875,-18.332885742188
0.106,21.145629882812,-0.2752685546875,-21.015502929688
0.1065,19.223754882812,4.6094970703125,-23.978393554688
0.107,14.859497070312,9.7745361328125,-24.739135742188
0.1075,11.416137695312,14.098754882812,-25.619995117188
0.108,6.8516845703125,17.141723632812,-24.098510742188
0.1085,2.4874267578125,19.784301757812,-22.456909179688
0.109,-2.5975341796875,21.786254882812,-19.534057617188
0.1095,-7.9627685546875,24.709106445312,-17.171752929688
0.11,-12.647338867188,24.709106445312,-12.527221679688
0.1105,-16.611206054688,24.949340820312,-8.8836669921875
0.111,-18.853393554688,23.668090820312,-5.4403076171875
0.1115,-21.736206054688,21.546020507812,-0.3953857421875
0.112,-23.818237304688,19.063598632812,4.2891845703125
0.1125,-25.219604492188,15.380004882812,9.4141845703125
0.113,-25.419799804688,11.616333007812,13.418090820312
0.1135,-24.498901367188,7.2120361328125,16.901489257812
0.114,-23.217651367188,4.0889892578125,18.823364257812
0.1145,-20.414916992188,-1.3162841796875,21.425903320312
0.115,-18.212768554688,-6.4412841796875,24.308715820312
0.1155,-13.448120117188,-11.286010742188,24.428833007812
0.116,-10.084838867188,-15.089721679688,24.829223632812
0.1165,-5.7205810546875,-17.652221679688,23.067504882812
0.117,-0.8358154296875,-20.374877929688,20.865356445312
0.1175,3.7686767578125,-22.296752929688,18.422973632812
0.118,9.4542236328125,-24.699096679688,15.299926757812
0.1185,13.458129882812,-24.578979492188,11.135864257812
0.119,17.221801757812,-24.378784179688,7.3321533203125
0.1195,19.103637695312,-22.857299804688,3.9688720703125
0.12,21.946411132812,-20.735229492188,-1.1561279296875
0.1205,24.068481445312,-18.252807617188,-5.8406982421875
0.121,24.829223632812,-14.088745117188,-10.765502929688
0.1215,25.069458007812,-10.925659179688,-14.369018554688
0.122,23.788208007812,-6.6014404296875,-17.331909179688
0.1225,22.066528320312,-2.7977294921875,-19.413940429688
0.123,19.704223632812,2.1671142578125,-22.016479492188
0.1235,16.781372070312,7.8526611328125,-24.739135742188
0.124,12.136840820312,12.176879882812,-24.378784179688
0.1245,8.8135986328125,15.660278320312,-24.659057617188
0.125,4.6495361328125,17.862426757812,-22.617065429688
0.1255,-0.5155029296875,20.665161132812,-20.414916992188
0.126,-5.0399169921875,22.707153320312,-18.012573242188
0.1265,-10.885620117188,24.669067382812,-14.248901367188
0.127,-14.328979492188,24.308715820312,-10.565307617188
0.1275,-17.892456054688,23.828247070312,-6.5213623046875
0.128,-19.694213867188,22.066528320312,-2.9578857421875
0.1285,-22.577026367188,19.984497070312,2.0469970703125
0.129,-24.538940429688,16.941528320312,7.1719970703125
0.1295,-24.619018554688,12.417114257812,11.776489257812
0.13,-25.019409179688,9.6143798828125,15.059692382812
0.1305,-23.217651367188,5.2501220703125,17.702270507812
0.131,-21.335815429688,0.9259033203125,20.144653320312
0.1315,-18.973510742188,-3.8387451171875,22.466918945312
0.132,-15.570190429688,-9.7645263671875,24.989379882812
0.1325,-10.885620117188,-13.448120117188,23.988403320312
0.133,-7.4022216796875,-16.891479492188,23.988403320312
0.1335,-2.8778076171875,-18.733276367188,21.425903320312
0.134,2.2471923828125,-21.736206054688,19.383911132812
0.1345,7.0518798828125,-23.457885742188,16.380981445312
0.135,12.457153320312,-24.779174804688,12.377075195312
0.1355,15.580200195312,-24.498901367188,9.0938720703125
0.136,18.863403320312,-23.297729492188,4.5694580078125
0.1365,20.825317382812,-21.335815429688,0.6456298828125
0.137,23.307739257812,-19.253784179688,-4.0389404296875
0.1375,25.069458007812,-15.850463867188,-9.4041748046875
0.138,24.468872070312,-11.085815429688,-13.448120117188
0.1385,24.869262695312,-8.4832763671875,-16.531127929688
0.139,22.426879882812,-3.7186279296875,-18.813354492188
0.1395,20.585083007812,0.8858642578125,-21.616088867188
0.14,17.582153320312,5.6905517578125,-23.337768554688
0.1405,13.898559570312,11.416137695312,-25.339721679688
0.141,9.5343017578125,14.579223632812,-24.218627929688
0.1415,5.6505126953125,17.862426757812,-23.658081054688
0.142,1.0860595703125,19.544067382812,-20.855346679688
0.1425,-3.8787841796875,22.546997070312,-19.093627929688
0.143,-9.0037841796875,23.988403320312,-15.289916992188
0.1435,-13.848510742188,24.508911132812,-11.165893554688
0.144,-16.691284179688,24.468872070312,-8.3631591796875
0.1445,-19.614135742188,22.466918945312,-3.4783935546875
0.145,-21.696166992188,20.505004882812,0.6456298828125
0.1455,-23.698120117188,17.982543945312,5.2100830078125
0.146,-25.299682617188,14.338989257812,10.575317382812
0.1465,-24.218627929688,9.6544189453125,14.218872070312
0.147,-24.378784179688,6.9718017578125,17.141723632812
0.1475,-21.616088867188,2.2471923828125,19.103637695312
0.148,-20.054565429688,-2.4774169921875,22.226684570312
0.1485,-16.370971679688,-7.4022216796875,23.387817382812
0.149,-12.527221679688,-12.567260742188,24.829223632812
0.1495,-8.6834716796875,-15.450073242188,23.828247070312
0.15,-4.1190185546875,-18.453002929688,22.266723632812
0.1505,0.4053955078125,-20.254760742188,19.704223632812
0.151,5.1700439453125,-23.057495117188,17.782348632812
0.1515,10.495239257812,-24.298706054688,13.818481445312
0.152,14.699340820312,-24.058471679688,9.4942626953125
0.1525,17.341918945312,-24.178588867188,6.9317626953125
0.153,20.024536132812,-21.816284179688,1.8868408203125
0.1535,22.546997070312,-20.014526367188,-2.5574951171875
0.154,23.828247070312,-16.811401367188,-7.0418701171875
0.1545,25.229614257812,-13.207885742188,-12.046752929688
0.155,24.068481445312,-8.9637451171875,-15.249877929688
0.1555,23.668090820312,-5.7205810546875,-18.092651367188
0.156,20.825317382812,-0.9158935546875,-20.054565429688
0.1565,19.183715820312,4.0489501953125,-23.377807617188
0.157,14.899536132812,9.0938720703125,-24.098510742188
0.1575,10.935668945312,13.698364257812,-24.659057617188
0.158,7.6524658203125,16.340942382812,-24.058471679688
0.1585,2.4473876953125,19.223754882812,-21.896362304688
0.159,-2.1170654296875,21.265747070312,-19.373901367188
0.1595,-7.2020263671875,23.668090820312,-16.851440429688
0.16,-12.206909179688,24.709106445312,-13.007690429688
0.1605,-16.010620117188,24.028442382812,-8.6434326171875
0.161,-18.533081054688,23.668090820312,-5.7606201171875
0.1615,-21.095581054688,21.145629882812,-0.7156982421875
0.162,-23.698120117188,19.143676757812,4.0889892578125
0.1625,-24.298706054688,15.179809570312,8.6534423828125
0.163,-25.339721679688,11.656372070312,13.338012695312
0.1635,-24.258666992188,7.6925048828125,16.260864257812
0.164,-23.097534179688,3.7286376953125,19.023559570312
0.1645,-20.294799804688,-1.1561279296875,21.065551757812
0.165,-18.132690429688,-6.4012451171875,24.148559570312
0.1655,-13.568237304688,-11.165893554688,24.508911132812
0.166,-9.4442138671875,-15.289916992188,24.388793945312
0.1665,-6.1610107421875,-17.652221679688,23.547973632812
0.167,-0.5155029296875,-20.575073242188,20.865356445312
0.1675,4.1290283203125,-22.697143554688,18.503051757812
0.168,9.6143798828125,-24.498901367188,14.939575195312
0.1685,13.898559570312,-25.259643554688,11.416137695312
0.169,17.582153320312,-24.378784179688,6.8917236328125
0.1695,19.904418945312,-23.377807617188,3.4884033203125
0.17,22.466918945312,-20.775268554688,-1.6365966796875
0.1705,25.029418945312,-18.332885742188,-6.7215576171875
0.171,24.989379882812,-13.808471679688,-11.245971679688
0.1715,25.670043945312,-10.445190429688,-15.369995117188
0.172,24.308715820312,-6.4813232421875,-17.972534179688
0.1725,22.466918945312,-1.7967529296875,-20.855346679688
0.173,19.744262695312,3.1280517578125,-22.937377929688
0.1735,16.621215820312,8.8936767578125,-25.619995117188
0.174,12.176879882812,13.097778320312,-25.419799804688
0.1745,7.8126220703125,17.061645507812,-25.019409179688
0.175,4.1290283203125,19.103637695312,-23.377807617188
0.1755,-1.5965576171875,22.026489257812,-20.695190429688
0.176,-6.5614013671875,24.188598632812,-18.012573242188
0.1765,-12.126831054688,25.269653320312,-13.688354492188
0.177,-15.850463867188,25.589965820312,-10.365112304688
0.1775,-19.253784179688,24.268676757812,-5.6405029296875
0.178,-21.495971679688,22.747192382812,-1.7967529296875
