wavelength,x,y,z
0.0,-1.911865234375,3.853759765625,-2.312255859375
0.0005,-2.672607421875,3.893798828125,-1.631591796875
0.001,-3.353271484375,3.973876953125,-1.031005859375
0.0015,-3.553466796875,3.453369140625,-0.390380859375
0.002,-3.913818359375,3.533447265625,0.010009765625
0.0025,-3.873779296875,2.612548828125,0.850830078125
0.003,-4.114013671875,2.252197265625,1.411376953125
0.0035,-4.154052734375,1.331298828125,2.292236328125
0.004,-3.993896484375,0.690673828125,2.812744140625
0.0045,-3.633544921875,-0.110107421875,3.213134765625
0.005,-3.353271484375,-0.670654296875,3.533447265625
0.0055,-2.592529296875,-1.631591796875,3.693603515625
0.006,-2.072021484375,-2.392333984375,3.853759765625
0.0065,-1.311279296875,-3.233154296875,3.973876953125
0.007,-0.630615234375,-3.673583984375,3.613525390625
0.0075,-0.070068359375,-4.154052734375,3.573486328125
0.008,0.970947265625,-4.354248046875,2.772705078125
0.0085,1.771728515625,-4.674560546875,2.212158203125
0.009,2.612548828125,-4.674560546875,1.411376953125
0.0095,3.253173828125,-4.714599609375,0.770751953125
0.01,3.493408203125,-4.154052734375,0.130126953125
0.0105,3.813720703125,-4.033935546875,-0.310302734375
0.011,3.853759765625,-3.032958984375,-1.351318359375
0.0115,3.933837890625,-2.512451171875,-1.951904296875
0.012,3.973876953125,-1.591552734375,-2.912841796875
0.0125,3.533447265625,-0.750732421875,-3.273193359375
0.013,3.173095703125,0.050048828125,-3.673583984375
0.0135,2.652587890625,0.850830078125,-3.873779296875
0.014,1.851806640625,1.891845703125,-4.073974609375
0.0145,1.171142578125,2.532470703125,-4.033935546875
0.015,0.370361328125,3.333251953125,-4.073974609375
0.0155,-0.390380859375,3.573486328125,-3.553466796875
0.016,-0.990966796875,3.973876953125,-3.353271484375
0.0165,-2.192138671875,4.093994140625,-2.272216796875
0.017,-2.912841796875,4.174072265625,-1.671630859375
0.0175,-3.633544921875,4.013916015625,-0.870849609375
0.018,-4.073974609375,3.893798828125,-0.270263671875
0.0185,-4.154052734375,3.333251953125,0.370361328125
0.019,-4.314208984375,3.012939453125,0.890869140625
0.0195,-4.354248046875,2.052001953125,1.891845703125
0.02,-4.234130859375,1.411376953125,2.412353515625
0.0205,-4.314208984375,0.610595703125,3.213134765625
0.021,-3.713623046875,-0.310302734375,3.453369140625
0.0215,-3.473388671875,-0.950927734375,3.853759765625
0.022,-2.632568359375,-1.831787109375,3.893798828125
0.0225,-1.991943359375,-2.712646484375,4.093994140625
0.023,-1.191162109375,-3.353271484375,3.933837890625
0.0235,-0.510498046875,-4.073974609375,3.973876953125
0.024,0.250244140625,-4.234130859375,3.373291015625
0.0245,0.810791015625,-4.714599609375,3.173095703125
0.025,2.092041015625,-4.834716796875,2.052001953125
0.0255,2.772705078125,-4.874755859375,1.531494140625
0.026,3.533447265625,-4.794677734375,0.650634765625
0.0265,3.853759765625,-4.514404296875,0.050048828125
0.027,4.053955078125,-3.993896484375,-0.590576171875
0.0275,4.134033203125,-3.393310546875,-1.271240234375
0.028,4.334228515625,-2.512451171875,-2.352294921875
0.0285,4.093994140625,-1.671630859375,-2.872802734375
0.029,4.134033203125,-0.830810546875,-3.753662109375
0.0295,3.253173828125,0.170166015625,-3.873779296875
0.03,3.052978515625,0.810791015625,-4.274169921875
0.0305,1.971923828125,1.971923828125,-4.314208984375
0.031,1.291259765625,2.852783203125,-4.514404296875
0.0315,0.330322265625,3.453369140625,-4.114013671875
0.032,-0.390380859375,4.134033203125,-4.073974609375
0.0325,-1.231201171875,4.134033203125,-3.353271484375
0.033,-1.951904296875,4.454345703125,-2.912841796875
0.0335,-3.353271484375,4.654541015625,-1.631591796875
0.034,-3.913818359375,4.414306640625,-0.910888671875
0.0345,-4.514404296875,4.214111328125,-0.150146484375
0.035,-4.674560546875,3.733642578125,0.570556640625
0.0355,-4.754638671875,3.173095703125,1.131103515625
0.036,-4.714599609375,2.292236328125,1.971923828125
0.0365,-4.834716796875,1.451416015625,2.932861328125
0.037,-4.354248046875,0.490478515625,3.333251953125
0.0375,-4.354248046875,-0.270263671875,4.053955078125
0.038,-3.393310546875,-1.231201171875,4.053955078125
0.0385,-3.153076171875,-1.791748046875,4.334228515625
0.039,-1.951904296875,-3.032958984375,4.334228515625
0.0395,-1.271240234375,-3.713623046875,4.334228515625
0.04,-0.350341796875,-4.274169921875,3.973876953125
0.0405,0.290283203125,-4.794677734375,3.853759765625
0.041,1.091064453125,-4.874755859375,3.093017578125
0.0415,1.931884765625,-5.074951171875,2.532470703125
0.042,3.213134765625,-5.275146484375,1.451416015625
0.0425,3.613525390625,-4.874755859375,0.650634765625
0.043,4.294189453125,-4.834716796875,0.010009765625
0.0435,4.334228515625,-4.154052734375,-0.710693359375
0.044,4.494384765625,-3.713623046875,-1.271240234375
0.0445,4.454345703125,-2.672607421875,-2.272216796875
0.045,4.614501953125,-1.911865234375,-3.193115234375
0.0455,3.973876953125,-0.790771484375,-3.633544921875
0.046,3.933837890625,-0.070068359375,-4.314208984375
0.0465,2.932861328125,0.970947265625,-4.314208984375
0.047,2.612548828125,1.571533203125,-4.554443359375
0.0475,1.411376953125,2.892822265625,-4.634521484375
0.048,0.610595703125,3.533447265625,-4.514404296875
0.0485,-0.310302734375,4.093994140625,-4.154052734375
0.049,-0.990966796875,4.494384765625,-3.833740234375
0.0495,-1.911865234375,4.574462890625,-3.072998046875
0.05,-2.832763671875,4.734619140625,-2.272216796875
0.0505,-4.154052734375,4.974853515625,-1.191162109375
0.051,-4.474365234375,4.334228515625,-0.270263671875
0.0515,-4.994873046875,4.294189453125,0.330322265625
0.052,-4.954833984375,3.413330078125,1.131103515625
0.0525,-4.994873046875,2.892822265625,1.691650390625
0.053,-4.954833984375,1.731689453125,2.772705078125
0.0535,-4.954833984375,0.930908203125,3.573486328125
0.054,-4.234130859375,-0.190185546875,3.893798828125
0.0545,-4.154052734375,-0.910888671875,4.454345703125
0.055,-3.153076171875,-1.871826171875,4.334228515625
0.0555,-2.592529296875,-2.512451171875,4.494384765625
0.056,-1.431396484375,-3.793701171875,4.614501953125
0.0565,-0.590576171875,-4.354248046875,4.174072265625
0.057,0.170166015625,-4.834716796875,3.973876953125
0.0575,0.970947265625,-5.034912109375,3.453369140625
0.058,1.771728515625,-5.155029296875,2.732666015625
0.0585,2.732666015625,-5.195068359375,1.931884765625
0.059,3.853759765625,-5.395263671875,0.930908203125
0.0595,4.093994140625,-4.674560546875,0.050048828125
0.06,4.574462890625,-4.714599609375,-0.470458984375
0.0605,4.494384765625,-3.713623046875,-1.271240234375
0.061,4.534423828125,-3.193115234375,-1.871826171875
0.0615,4.574462890625,-2.072021484375,-2.992919921875
0.062,4.454345703125,-1.271240234375,-3.713623046875
0.0625,3.853759765625,-0.190185546875,-4.114013671875
0.063,3.533447265625,0.530517578125,-4.514404296875
0.0635,2.572509765625,1.531494140625,-4.514404296875
0.064,2.052001953125,2.252197265625,-4.634521484375
0.0645,0.970947265625,3.493408203125,-4.834716796875
0.065,0.010009765625,3.893798828125,-4.234130859375
0.0655,-0.630615234375,4.494384765625,-4.154052734375
0.066,-1.671630859375,4.654541015625,-3.353271484375
0.0665,-2.512451171875,4.774658203125,-2.592529296875
0.067,-3.553466796875,4.814697265625,-1.631591796875
0.0675,-4.514404296875,4.854736328125,-0.750732421875
0.068,-4.674560546875,4.134033203125,0.170166015625
0.0685,-5.114990234375,4.053955078125,0.610595703125
0.069,-4.994873046875,2.932861328125,1.571533203125
0.0695,-4.994873046875,2.372314453125,2.172119140625
0.07,-4.994873046875,1.251220703125,3.333251953125
0.0705,-4.634521484375,0.330322265625,3.853759765625
0.071,-4.114013671875,-0.630615234375,4.214111328125
0.0715,-3.673583984375,-1.351318359375,4.494384765625
0.072,-2.632568359375,-2.352294921875,4.334228515625
0.0725,-2.031982421875,-3.113037109375,4.494384765625
0.073,-0.990966796875,-4.234130859375,4.534423828125
0.0735,-0.070068359375,-4.474365234375,3.893798828125
0.074,0.450439453125,-4.994873046875,3.853759765625
0.0745,1.531494140625,-5.074951171875,2.892822265625
0.075,2.252197265625,-5.155029296875,2.292236328125
0.0755,3.253173828125,-5.155029296875,1.291259765625
0.076,3.973876953125,-5.114990234375,0.570556640625
0.0765,4.134033203125,-4.474365234375,-0.230224609375
0.077,4.414306640625,-4.314208984375,-0.670654296875
0.0775,4.334228515625,-3.233154296875,-1.631591796875
0.078,4.334228515625,-2.672607421875,-2.192138671875
0.0785,4.494384765625,-1.671630859375,-3.313232421875
0.079,3.933837890625,-0.750732421875,-3.633544921875
0.0795,3.613525390625,0.090087890625,-4.154052734375
0.08,2.932861328125,0.930908203125,-4.194091796875
0.0805,2.252197265625,1.771728515625,-4.434326171875
0.081,1.491455078125,2.572509765625,-4.474365234375
0.0815,0.610595703125,3.573486328125,-4.514404296875
0.082,-0.310302734375,3.853759765625,-3.873779296875
0.0825,-0.830810546875,4.334228515625,-3.873779296875
0.083,-2.031982421875,4.414306640625,-2.712646484375
0.0835,-2.712646484375,4.614501953125,-2.272216796875
0.084,-3.793701171875,4.614501953125,-1.231201171875
0.0845,-4.234130859375,4.334228515625,-0.510498046875
0.085,-4.514404296875,3.853759765625,0.210205078125
0.0855,-4.674560546875,3.533447265625,0.770751953125
0.086,-4.674560546875,2.572509765625,1.691650390625
0.0865,-4.634521484375,1.931884765625,2.292236328125
0.087,-4.794677734375,0.970947265625,3.333251953125
0.0875,-4.114013671875,0.010009765625,3.573486328125
0.088,-3.993896484375,-0.790771484375,4.053955078125
0.0885,-3.072998046875,-1.631591796875,4.093994140625
0.089,-2.552490234375,-2.432373046875,4.374267578125
0.0895,-1.591552734375,-3.273193359375,4.174072265625
0.09,-0.790771484375,-3.993896484375,4.174072265625
0.0905,0.010009765625,-4.234130859375,3.573486328125
0.091,0.570556640625,-4.674560546875,3.533447265625
0.0915,1.691650390625,-4.714599609375,2.412353515625
0.092,2.292236328125,-4.874755859375,1.971923828125
0.0925,3.253173828125,-4.914794921875,1.051025390625
0.093,3.573486328125,-4.554443359375,0.410400390625
0.0935,3.853759765625,-4.234130859375,-0.190185546875
0.094,3.973876953125,-3.713623046875,-0.790771484375
0.0945,4.093994140625,-2.952880859375,-1.631591796875
0.095,3.973876953125,-2.192138671875,-2.272216796875
0.0955,4.134033203125,-1.431396484375,-3.193115234375
0.096,3.373291015625,-0.510498046875,-3.433349609375
0.0965,3.373291015625,0.090087890625,-3.913818359375
0.097,2.292236328125,1.051025390625,-3.873779296875
0.0975,1.971923828125,1.851806640625,-4.194091796875
0.098,1.051025390625,2.732666015625,-4.114013671875
0.0985,0.330322265625,3.333251953125,-3.993896484375
0.099,-0.350341796875,3.573486328125,-3.553466796875
0.0995,-1.031005859375,3.973876953125,-3.273193359375
0.1,-2.152099609375,4.093994140625,-2.312255859375
0.1005,-2.752685546875,4.174072265625,-1.791748046875
0.101,-3.633544921875,4.254150390625,-1.031005859375
0.1015,-3.833740234375,3.773681640625,-0.350341796875
0.102,-4.194091796875,3.693603515625,0.130126953125
0.1025,-4.154052734375,2.852783203125,0.890869140625
0.103,-4.354248046875,2.372314453125,1.571533203125
0.1035,-4.234130859375,1.451416015625,2.332275390625
0.104,-4.314208984375,0.810791015625,3.012939453125
0.1045,-3.633544921875,-0.190185546875,3.213134765625
0.105,-3.633544921875,-0.710693359375,3.653564453125
0.1055,-2.592529296875,-1.671630859375,3.693603515625
0.106,-2.272216796875,-2.352294921875,3.973876953125
0.1065,-1.311279296875,-3.193115234375,3.933837890625
0.107,-0.670654296875,-3.673583984375,3.733642578125
0.1075,-0.070068359375,-3.993896484375,3.493408203125
0.108,0.730712890625,-4.274169921875,2.932861328125
0.1085,1.651611328125,-4.514404296875,2.252197265625
0.109,2.292236328125,-4.514404296875,1.611572265625
0.1095,3.052978515625,-4.634521484375,1.010986328125
0.11,3.173095703125,-4.114013671875,0.330322265625
0.1105,3.573486328125,-4.114013671875,0.010009765625
0.111,3.533447265625,-3.193115234375,-0.990966796875
0.1115,3.853759765625,-2.752685546875,-1.591552734375
0.112,3.773681640625,-1.871826171875,-2.392333984375
0.1125,3.693603515625,-1.271240234375,-2.912841796875
0.113,3.133056640625,-0.350341796875,-3.273193359375
0.1135,2.932861328125,0.290283203125,-3.593505859375
0.114,2.092041015625,1.331298828125,-3.793701171875
0.1145,1.651611328125,1.931884765625,-3.953857421875
0.115,0.850830078125,2.812744140625,-3.993896484375
0.1155,0.130126953125,3.133056640625,-3.593505859375
0.116,-0.470458984375,3.573486328125,-3.473388671875
0.1165,-1.431396484375,3.733642578125,-2.632568359375
0.117,-2.272216796875,4.013916015625,-2.112060546875
0.1175,-2.952880859375,3.893798828125,-1.311279296875
0.118,-3.513427734375,3.933837890625,-0.830810546875
0.1185,-3.633544921875,3.373291015625,-0.150146484375
0.119,-3.913818359375,3.293212890625,0.250244140625
0.1195,-3.953857421875,2.332275390625,1.171142578125
0.12,-4.114013671875,1.891845703125,1.771728515625
0.1205,-4.114013671875,1.051025390625,2.532470703125
0.121,-3.793701171875,0.330322265625,2.852783203125
0.1215,-3.473388671875,-0.350341796875,3.333251953125
0.122,-2.992919921875,-1.071044921875,3.493408203125
0.1225,-2.352294921875,-1.991943359375,3.773681640625
0.123,-1.711669921875,-2.592529296875,3.733642578125
0.1235,-1.111083984375,-3.353271484375,3.813720703125
0.124,-0.390380859375,-3.593505859375,3.373291015625
0.1245,0.170166015625,-4.114013671875,3.333251953125
0.125,1.251220703125,-4.194091796875,2.372314453125
0.1255,1.971923828125,-4.514404296875,1.931884765625
0.126,2.652587890625,-4.434326171875,1.211181640625
0.1265,3.093017578125,-4.354248046875,0.690673828125
0.127,3.293212890625,-3.913818359375,0.090087890625
0.1275,3.533447265625,-3.593505859375,-0.470458984375
0.128,3.693603515625,-2.832763671875,-1.431396484375
0.1285,3.693603515625,-2.272216796875,-1.991943359375
0.129,3.773681640625,-1.471435546875,-2.872802734375
0.1295,3.213134765625,-0.630615234375,-3.072998046875
0.13,3.052978515625,0.090087890625,-3.553466796875
0.1305,2.252197265625,1.010986328125,-3.673583984375
0.131,1.771728515625,1.891845703125,-3.993896484375
0.1315,0.970947265625,2.492431640625,-3.833740234375
0.132,0.370361328125,3.173095703125,-3.873779296875
0.1325,-0.390380859375,3.373291015625,-3.313232421875
0.133,-1.031005859375,3.813720703125,-3.113037109375
0.1335,-2.272216796875,3.973876953125,-2.072021484375
0.134,-2.912841796875,4.013916015625,-1.511474609375
0.1345,-3.553466796875,3.893798828125,-0.790771484375
0.135,-3.833740234375,3.653564453125,-0.270263671875
0.1355,-3.953857421875,3.213134765625,0.330322265625
0.136,-4.033935546875,2.532470703125,0.970947265625
0.1365,-4.234130859375,1.891845703125,1.931884765625
0.137,-3.993896484375,1.091064453125,2.372314453125
0.1375,-4.033935546875,0.490478515625,3.093017578125
0.138,-3.353271484375,-0.430419921875,3.213134765625
0.1385,-3.233154296875,-0.950927734375,3.613525390625
0.139,-2.272216796875,-1.951904296875,3.653564453125
0.1395,-1.791748046875,-2.672607421875,3.853759765625
0.14,-0.990966796875,-3.233154296875,3.653564453125
0.1405,-0.510498046875,-3.793701171875,3.653564453125
0.141,0.250244140625,-3.953857421875,3.133056640625
0.1415,0.970947265625,-4.314208984375,2.732666015625
0.142,2.092041015625,-4.514404296875,1.891845703125
0.1425,2.612548828125,-4.474365234375,1.291259765625
0.143,3.253173828125,-4.514404296875,0.690673828125
0.1435,3.373291015625,-3.993896484375,0.090087890625
0.144,3.693603515625,-3.833740234375,-0.510498046875
0.1445,3.693603515625,-2.952880859375,-1.311279296875
0.145,3.973876953125,-2.432373046875,-2.192138671875
0.1455,3.693603515625,-1.471435546875,-2.712646484375
0.146,3.693603515625,-0.830810546875,-3.353271484375
0.1465,2.892822265625,0.170166015625,-3.513427734375
0.147,2.772705078125,0.770751953125,-3.913818359375
0.1475,1.771728515625,1.931884765625,-4.033935546875
0.148,1.131103515625,2.612548828125,-4.114013671875
0.1485,0.330322265625,3.213134765625,-3.913818359375
0.149,-0.350341796875,3.693603515625,-3.713623046875
0.1495,-1.111083984375,3.893798828125,-3.153076171875
0.15,-2.072021484375,4.134033203125,-2.432373046875
0.1505,-3.193115234375,4.414306640625,-1.551513671875
0.151,-3.673583984375,4.013916015625,-0.750732421875
0.1515,-4.194091796875,4.013916015625,-0.230224609375
0.152,-4.234130859375,3.253173828125,0.490478515625
0.1525,-4.394287109375,2.892822265625,1.010986328125
0.153,-4.434326171875,1.891845703125,2.011962890625
0.1535,-4.514404296875,1.251220703125,2.772705078125
0.154,-3.993896484375,0.290283203125,3.213134765625
0.1545,-3.873779296875,-0.390380859375,3.733642578125
0.155,-3.032958984375,-1.271240234375,3.733642578125
0.1555,-2.672607421875,-1.911865234375,3.973876953125
0.156,-1.671630859375,-3.072998046875,4.093994140625
0.1565,-0.990966796875,-3.553466796875,3.853759765625
0.157,-0.310302734375,-4.114013671875,3.773681640625
0.1575,0.410400390625,-4.354248046875,3.293212890625
0.158,1.131103515625,-4.514404296875,2.812744140625
0.1585,2.092041015625,-4.674560546875,1.971923828125
0.159,3.093017578125,-4.874755859375,1.211181640625
0.1595,3.373291015625,-4.394287109375,0.450439453125
0.16,3.893798828125,-4.514404296875,0.010009765625
0.1605,3.853759765625,-3.713623046875,-0.790771484375
0.161,4.013916015625,-3.353271484375,-1.271240234375
0.1615,4.134033203125,-2.272216796875,-2.392333984375
0.162,4.093994140625,-1.591552734375,-2.992919921875
0.1625,3.653564453125,-0.630615234375,-3.553466796875
0.163,3.373291015625,0.130126953125,-3.873779296875
0.1635,2.652587890625,0.970947265625,-4.033935546875
0.164,2.092041015625,1.771728515625,-4.274169921875
0.1645,1.211181640625,2.932861328125,-4.514404296875
0.165,0.330322265625,3.413330078125,-4.033935546875
0.1655,-0.310302734375,4.013916015625,-4.033935546875
0.166,-1.271240234375,4.174072265625,-3.273193359375
0.1665,-2.072021484375,4.454345703125,-2.752685546875
0.167,-3.193115234375,4.574462890625,-1.791748046875
0.1675,-4.154052734375,4.654541015625,-0.950927734375
0.168,-4.354248046875,3.973876953125,-0.070068359375
0.1685,-4.794677734375,3.933837890625,0.450439453125
0.169,-4.754638671875,2.932861328125,1.291259765625
0.1695,-4.794677734375,2.412353515625,1.931884765625
0.17,-4.874755859375,1.291259765625,3.133056640625
0.1705,-4.514404296875,0.450439453125,3.573486328125
0.171,-4.033935546875,-0.510498046875,4.013916015625
0.1715,-3.553466796875,-1.271240234375,4.294189453125
0.172,-2.712646484375,-2.232177734375,4.334228515625
0.1725,-1.991943359375,-3.032958984375,4.334228515625
0.173,-0.990966796875,-4.114013671875,4.494384765625
0.1735,-0.110107421875,-4.354248046875,3.853759765625
0.174,0.450439453125,-4.874755859375,3.813720703125
0.1745,1.571533203125,-4.994873046875,2.812744140625
0.175,2.212158203125,-5.074951171875,2.252197265625
0.1755,3.293212890625,-5.114990234375,1.251220703125
0.176,3.933837890625,-5.034912109375,0.490478515625
0.1765,4.134033203125,-4.474365234375,-0.310302734375
0.177,4.454345703125,-4.274169921875,-0.790771484375
0.1775,4.334228515625,-3.193115234375,-1.671630859375
0.178,4.334228515625,-2.592529296875,-2.272216796875
0.1785,4.494384765625,-1.591552734375,-3.393310546875
0.179,3.893798828125,-0.630615234375,-3.753662109375
0.1795,3.613525390625,0.170166015625,-4.194091796875
0.18,2.892822265625,1.051025390625,-4.354248046875
0.1805,2.172119140625,1.931884765625,-4.474365234375
0.181,1.371337890625,2.812744140625,-4.514404296875
0.1815,0.490478515625,3.813720703125,-4.554443359375
0.182,-0.510498046875,4.053955078125,-3.913818359375
0.1825,-0.990966796875,4.534423828125,-3.873779296875
0.183,-2.272216796875,4.654541015625,-2.712646484375
0.1835,-2.992919921875,4.734619140625,-2.112060546875
0.184,-4.114013671875,4.734619140625,-1.111083984375
0.1845,-4.634521484375,4.494384765625,-0.310302734375
0.185,-4.834716796875,3.893798828125,0.450439453125
0.1855,-5.074951171875,3.573486328125,1.091064453125
0.186,-5.034912109375,2.492431640625,2.132080078125
0.1865,-4.914794921875,1.771728515625,2.692626953125
0.187,-4.994873046875,0.730712890625,3.813720703125
0.1875,-4.234130859375,-0.310302734375,4.053955078125
0.188,-3.993896484375,-1.071044921875,4.494384765625
