wavelength,x,y,z
0.0,-1.111083984375,5.775634765625,-3.833740234375
0.0005,-0.310302734375,5.695556640625,-4.634521484375
0.001,0.930908203125,5.054931640625,-5.114990234375
0.0015,2.092041015625,4.134033203125,-5.675537109375
0.002,3.333251953125,3.133056640625,-6.035888671875
0.0025,4.174072265625,2.172119140625,-6.196044921875
0.003,4.654541015625,1.491455078125,-6.276123046875
0.0035,4.814697265625,0.690673828125,-5.835693359375
0.004,4.814697265625,-0.350341796875,-5.195068359375
0.0045,4.934814453125,-1.591552734375,-4.354248046875
0.005,4.934814453125,-2.832763671875,-3.353271484375
0.0055,4.894775390625,-3.793701171875,-2.592529296875
0.006,4.654541015625,-4.514404296875,-1.831787109375
0.0065,3.973876953125,-4.954833984375,-0.830810546875
0.007,3.173095703125,-5.435302734375,0.450439453125
0.0075,2.092041015625,-5.915771484375,1.891845703125
0.008,1.251220703125,-6.276123046875,3.052978515625
0.0085,0.570556640625,-6.596435546875,4.013916015625
0.009,-0.510498046875,-6.356201171875,4.734619140625
0.0095,-1.751708984375,-5.515380859375,5.255126953125
0.01,-3.032958984375,-4.514404296875,5.775634765625
0.0105,-4.154052734375,-3.353271484375,6.055908203125
0.011,-4.834716796875,-2.512451171875,6.176025390625
0.0115,-5.155029296875,-1.791748046875,6.015869140625
0.012,-5.195068359375,-0.910888671875,5.415283203125
0.0125,-5.235107421875,0.290283203125,4.694580078125
0.013,-5.355224609375,1.571533203125,3.773681640625
0.0135,-5.315185546875,2.732666015625,2.812744140625
0.014,-5.195068359375,3.573486328125,2.011962890625
0.0145,-4.754638671875,4.134033203125,1.211181640625
0.015,-3.873779296875,4.494384765625,0.130126953125
0.0155,-2.992919921875,4.974853515625,-1.271240234375
0.016,-1.951904296875,5.375244140625,-2.632568359375
0.0165,-1.151123046875,5.695556640625,-3.713623046875
0.017,-0.430419921875,5.775634765625,-4.594482421875
0.0175,0.650634765625,5.215087890625,-5.114990234375
0.018,1.931884765625,4.334228515625,-5.635498046875
0.0185,3.333251953125,3.293212890625,-6.035888671875
0.019,4.214111328125,2.172119140625,-6.196044921875
0.0195,4.734619140625,1.451416015625,-6.276123046875
0.02,4.934814453125,0.650634765625,-5.955810546875
0.0205,4.854736328125,-0.350341796875,-5.235107421875
0.021,4.934814453125,-1.551513671875,-4.434326171875
0.0215,4.974853515625,-2.872802734375,-3.353271484375
0.022,4.854736328125,-3.873779296875,-2.512451171875
0.0225,4.734619140625,-4.634521484375,-1.751708984375
0.023,4.013916015625,-5.074951171875,-0.830810546875
0.0235,3.133056640625,-5.395263671875,0.410400390625
0.024,2.092041015625,-5.915771484375,1.851806640625
0.0245,1.171142578125,-6.236083984375,3.093017578125
0.025,0.490478515625,-6.556396484375,4.093994140625
0.0255,-0.510498046875,-6.436279296875,4.814697265625
0.026,-1.671630859375,-5.595458984375,5.335205078125
0.0265,-2.952880859375,-4.594482421875,5.815673828125
0.027,-4.194091796875,-3.393310546875,6.135986328125
0.0275,-4.994873046875,-2.432373046875,6.216064453125
0.028,-5.355224609375,-1.711669921875,6.135986328125
0.0285,-5.355224609375,-0.910888671875,5.615478515625
0.029,-5.275146484375,0.250244140625,4.774658203125
0.0295,-5.395263671875,1.531494140625,3.853759765625
0.03,-5.315185546875,2.812744140625,2.812744140625
0.0305,-5.195068359375,3.653564453125,2.011962890625
0.031,-4.834716796875,4.254150390625,1.211181640625
0.0315,-3.993896484375,4.574462890625,0.170166015625
0.032,-3.072998046875,4.974853515625,-1.191162109375
0.0325,-1.951904296875,5.375244140625,-2.632568359375
0.033,-1.111083984375,5.655517578125,-3.793701171875
0.0335,-0.470458984375,5.855712890625,-4.674560546875
0.034,0.610595703125,5.495361328125,-5.275146484375
0.0345,1.891845703125,4.534423828125,-5.755615234375
0.035,3.213134765625,3.453369140625,-6.196044921875
0.0355,4.334228515625,2.252197265625,-6.356201171875
0.036,4.934814453125,1.411376953125,-6.436279296875
0.0365,5.135009765625,0.650634765625,-6.196044921875
0.037,5.094970703125,-0.350341796875,-5.475341796875
0.0375,5.054931640625,-1.511474609375,-4.554443359375
0.038,5.094970703125,-2.912841796875,-3.473388671875
0.0385,5.014892578125,-4.114013671875,-2.432373046875
0.039,4.814697265625,-4.874755859375,-1.631591796875
0.0395,4.214111328125,-5.315185546875,-0.790771484375
0.04,3.253173828125,-5.635498046875,0.490478515625
0.0405,2.172119140625,-6.115966796875,1.931884765625
0.041,1.010986328125,-6.396240234375,3.333251953125
0.0415,0.250244140625,-6.716552734375,4.374267578125
0.042,-0.630615234375,-6.596435546875,5.175048828125
0.0425,-1.791748046875,-5.835693359375,5.695556640625
0.043,-3.153076171875,-4.714599609375,6.095947265625
0.0435,-4.514404296875,-3.433349609375,6.416259765625
0.044,-5.355224609375,-2.272216796875,6.456298828125
0.0445,-5.755615234375,-1.471435546875,6.376220703125
0.045,-5.755615234375,-0.630615234375,5.855712890625
0.0455,-5.595458984375,0.610595703125,4.814697265625
0.046,-5.595458984375,1.931884765625,3.773681640625
0.0465,-5.515380859375,3.253173828125,2.572509765625
0.047,-5.355224609375,4.254150390625,1.651611328125
0.0475,-4.954833984375,4.814697265625,0.850830078125
0.048,-4.073974609375,5.094970703125,-0.270263671875
0.0485,-2.872802734375,5.295166015625,-1.591552734375
0.049,-1.631591796875,5.735595703125,-3.193115234375
0.0495,-0.630615234375,5.895751953125,-4.434326171875
0.05,0.130126953125,6.095947265625,-5.275146484375
0.0505,1.091064453125,5.735595703125,-5.915771484375
0.051,2.412353515625,4.614501953125,-6.276123046875
0.0515,3.773681640625,3.333251953125,-6.636474609375
0.052,4.974853515625,1.971923828125,-6.796630859375
0.0525,5.575439453125,0.970947265625,-6.756591796875
0.053,5.735595703125,0.210205078125,-6.476318359375
0.0535,5.615478515625,-0.830810546875,-5.675537109375
0.054,5.375244140625,-2.072021484375,-4.514404296875
0.0545,5.335205078125,-3.553466796875,-3.193115234375
0.055,5.135009765625,-4.794677734375,-2.072021484375
0.0555,4.854736328125,-5.515380859375,-1.231201171875
0.056,4.334228515625,-5.955810546875,-0.350341796875
0.0565,3.133056640625,-6.196044921875,0.930908203125
0.057,1.851806640625,-6.436279296875,2.452392578125
0.0575,0.490478515625,-6.716552734375,3.973876953125
0.058,-0.470458984375,-6.796630859375,5.014892578125
0.0585,-1.111083984375,-6.796630859375,5.775634765625
0.059,-2.232177734375,-6.075927734375,6.296142578125
0.0595,-3.673583984375,-4.714599609375,6.576416015625
0.06,-4.994873046875,-3.353271484375,6.896728515625
0.0605,-5.915771484375,-2.072021484375,6.856689453125
0.061,-6.316162109375,-1.151123046875,6.696533203125
0.0615,-6.276123046875,-0.310302734375,6.135986328125
0.062,-5.995849609375,0.930908203125,5.094970703125
0.0625,-5.795654296875,2.212158203125,3.853759765625
0.063,-5.715576171875,3.653564453125,2.532470703125
0.0635,-5.435302734375,4.654541015625,1.411376953125
0.064,-5.074951171875,5.295166015625,0.610595703125
0.0645,-4.194091796875,5.495361328125,-0.390380859375
0.065,-2.872802734375,5.615478515625,-1.751708984375
0.0655,-1.591552734375,5.895751953125,-3.353271484375
0.066,-0.350341796875,6.095947265625,-4.714599609375
0.0665,0.490478515625,6.216064453125,-5.635498046875
0.067,1.251220703125,6.015869140625,-6.276123046875
0.0675,2.412353515625,4.974853515625,-6.556396484375
0.068,3.813720703125,3.613525390625,-6.916748046875
0.0685,5.094970703125,2.212158203125,-7.076904296875
0.069,5.815673828125,0.970947265625,-6.916748046875
0.0695,6.095947265625,0.170166015625,-6.716552734375
0.07,5.935791015625,-0.790771484375,-6.075927734375
0.0705,5.655517578125,-1.991943359375,-4.834716796875
0.071,5.455322265625,-3.433349609375,-3.553466796875
0.0715,5.335205078125,-4.794677734375,-2.272216796875
0.072,5.014892578125,-5.675537109375,-1.231201171875
0.0725,4.534423828125,-6.276123046875,-0.470458984375
0.073,3.533447265625,-6.396240234375,0.730712890625
0.0735,2.092041015625,-6.556396484375,2.172119140625
0.074,0.730712890625,-6.796630859375,3.853759765625
0.0745,-0.430419921875,-6.876708984375,4.974853515625
0.075,-1.071044921875,-6.956787109375,5.815673828125
0.0755,-1.991943359375,-6.436279296875,6.376220703125
0.076,-3.393310546875,-5.155029296875,6.696533203125
0.0765,-4.714599609375,-3.793701171875,6.936767578125
0.077,-5.835693359375,-2.392333984375,7.016845703125
0.0775,-6.396240234375,-1.311279296875,6.776611328125
0.078,-6.476318359375,-0.510498046875,6.456298828125
0.0785,-6.236083984375,0.610595703125,5.495361328125
0.079,-5.915771484375,1.851806640625,4.214111328125
0.0795,-5.795654296875,3.333251953125,2.932861328125
0.08,-5.595458984375,4.494384765625,1.691650390625
0.0805,-5.235107421875,5.175048828125,0.850830078125
0.081,-4.554443359375,5.535400390625,0.010009765625
0.0815,-3.393310546875,5.615478515625,-1.311279296875
0.082,-1.991943359375,5.895751953125,-2.832763671875
0.0825,-0.670654296875,6.135986328125,-4.354248046875
0.083,0.290283203125,6.216064453125,-5.395263671875
0.0835,0.930908203125,6.216064453125,-6.115966796875
0.084,1.971923828125,5.455322265625,-6.516357421875
0.0845,3.373291015625,4.093994140625,-6.796630859375
0.085,4.694580078125,2.732666015625,-7.076904296875
0.0855,5.655517578125,1.371337890625,-7.036865234375
0.086,6.055908203125,0.490478515625,-6.876708984375
0.0865,6.055908203125,-0.470458984375,-6.396240234375
0.087,5.775634765625,-1.511474609375,-5.355224609375
0.0875,5.575439453125,-2.872802734375,-4.073974609375
0.088,5.415283203125,-4.354248046875,-2.712646484375
0.0885,5.135009765625,-5.435302734375,-1.591552734375
0.089,4.814697265625,-6.115966796875,-0.750732421875
0.0895,3.933837890625,-6.396240234375,0.290283203125
0.09,2.692626953125,-6.476318359375,1.611572265625
0.0905,1.291259765625,-6.756591796875,3.213134765625
0.091,0.050048828125,-6.876708984375,4.654541015625
0.0915,-0.830810546875,-6.996826171875,5.575439453125
0.092,-1.591552734375,-6.796630859375,6.256103515625
0.0925,-2.872802734375,-5.715576171875,6.656494140625
0.093,-4.314208984375,-4.354248046875,6.936767578125
0.0935,-5.635498046875,-2.872802734375,7.096923828125
0.094,-6.356201171875,-1.591552734375,6.976806640625
0.0945,-6.556396484375,-0.790771484375,6.696533203125
0.095,-6.436279296875,0.250244140625,5.935791015625
0.0955,-6.115966796875,1.491455078125,4.734619140625
0.096,-5.955810546875,2.892822265625,3.373291015625
0.0965,-5.755615234375,4.294189453125,2.052001953125
0.097,-5.435302734375,5.094970703125,1.051025390625
0.0975,-4.874755859375,5.615478515625,0.170166015625
0.098,-3.833740234375,5.735595703125,-0.990966796875
0.0985,-2.432373046875,5.895751953125,-2.432373046875
0.099,-1.031005859375,6.135986328125,-4.033935546875
0.0995,0.170166015625,6.176025390625,-5.195068359375
0.1,0.810791015625,6.256103515625,-6.035888671875
0.1005,1.731689453125,5.735595703125,-6.516357421875
0.101,3.052978515625,4.494384765625,-6.756591796875
0.1015,4.414306640625,3.093017578125,-7.076904296875
0.102,5.495361328125,1.651611328125,-7.076904296875
0.1025,6.055908203125,0.610595703125,-6.916748046875
0.103,6.095947265625,-0.270263671875,-6.556396484375
0.1035,5.855712890625,-1.231201171875,-5.675537109375
0.104,5.575439453125,-2.432373046875,-4.434326171875
0.1045,5.415283203125,-3.953857421875,-3.072998046875
0.105,5.135009765625,-5.155029296875,-1.871826171875
0.1055,4.814697265625,-5.835693359375,-0.990966796875
0.106,4.214111328125,-6.196044921875,-0.150146484375
0.1065,3.093017578125,-6.316162109375,1.091064453125
0.107,1.771728515625,-6.516357421875,2.532470703125
0.1075,0.410400390625,-6.676513671875,4.093994140625
0.108,-0.590576171875,-6.796630859375,5.094970703125
0.1085,-1.231201171875,-6.836669921875,5.815673828125
0.109,-2.232177734375,-6.115966796875,6.256103515625
0.1095,-3.553466796875,-4.834716796875,6.536376953125
0.11,-4.834716796875,-3.553466796875,6.856689453125
0.1105,-5.795654296875,-2.192138671875,6.776611328125
0.111,-6.236083984375,-1.311279296875,6.656494140625
0.1115,-6.236083984375,-0.510498046875,6.176025390625
0.112,-5.955810546875,0.610595703125,5.215087890625
0.1125,-5.755615234375,1.771728515625,4.093994140625
0.113,-5.715576171875,3.213134765625,2.812744140625
0.1135,-5.475341796875,4.254150390625,1.731689453125
0.114,-5.114990234375,4.974853515625,0.970947265625
0.1145,-4.394287109375,5.335205078125,0.050048828125
0.115,-3.233154296875,5.455322265625,-1.271240234375
0.1155,-1.991943359375,5.775634765625,-2.752685546875
0.116,-0.790771484375,5.935791015625,-4.154052734375
0.1165,0.050048828125,6.095947265625,-5.114990234375
0.117,0.770751953125,6.055908203125,-5.795654296875
0.1175,1.891845703125,5.175048828125,-6.156005859375
0.118,3.173095703125,3.973876953125,-6.516357421875
0.1185,4.494384765625,2.652587890625,-6.756591796875
0.119,5.295166015625,1.491455078125,-6.716552734375
0.1195,5.655517578125,0.690673828125,-6.636474609375
0.12,5.615478515625,-0.190185546875,-6.115966796875
0.1205,5.415283203125,-1.311279296875,-5.114990234375
0.121,5.295166015625,-2.632568359375,-3.993896484375
0.1215,5.135009765625,-3.953857421875,-2.832763671875
0.122,4.974853515625,-4.874755859375,-1.791748046875
0.1225,4.654541015625,-5.515380859375,-1.031005859375
0.123,3.813720703125,-5.755615234375,0.010009765625
0.1235,2.692626953125,-6.035888671875,1.291259765625
0.124,1.411376953125,-6.356201171875,2.852783203125
0.1245,0.370361328125,-6.516357421875,4.053955078125
0.125,-0.350341796875,-6.756591796875,4.934814453125
0.1255,-1.191162109375,-6.476318359375,5.575439453125
0.126,-2.432373046875,-5.435302734375,5.935791015625
0.1265,-3.713623046875,-4.314208984375,6.336181640625
0.127,-4.874755859375,-3.072998046875,6.496337890625
0.1275,-5.595458984375,-1.991943359375,6.456298828125
0.128,-5.795654296875,-1.311279296875,6.296142578125
0.1285,-5.675537109375,-0.470458984375,5.615478515625
0.129,-5.555419921875,0.690673828125,4.654541015625
0.1295,-5.555419921875,2.011962890625,3.533447265625
0.13,-5.435302734375,3.253173828125,2.492431640625
0.1305,-5.235107421875,4.134033203125,1.651611328125
0.131,-4.794677734375,4.614501953125,0.890869140625
0.1315,-3.873779296875,4.854736328125,-0.270263671875
0.132,-2.832763671875,5.215087890625,-1.551513671875
0.1325,-1.631591796875,5.535400390625,-2.992919921875
0.133,-0.790771484375,5.775634765625,-4.114013671875
0.1335,-0.190185546875,6.015869140625,-4.914794921875
0.134,0.850830078125,5.535400390625,-5.475341796875
0.1345,2.052001953125,4.534423828125,-5.835693359375
0.135,3.373291015625,3.453369140625,-6.276123046875
0.1355,4.414306640625,2.252197265625,-6.436279296875
0.136,5.014892578125,1.411376953125,-6.476318359375
0.1365,5.175048828125,0.650634765625,-6.236083984375
0.137,5.094970703125,-0.310302734375,-5.555419921875
0.1375,5.054931640625,-1.431396484375,-4.674560546875
0.138,5.094970703125,-2.752685546875,-3.593505859375
0.1385,4.974853515625,-3.913818359375,-2.592529296875
0.139,4.854736328125,-4.714599609375,-1.831787109375
0.1395,4.334228515625,-5.195068359375,-0.990966796875
0.14,3.373291015625,-5.475341796875,0.210205078125
0.1405,2.372314453125,-5.955810546875,1.571533203125
0.141,1.251220703125,-6.236083984375,2.972900390625
0.1415,0.490478515625,-6.516357421875,4.013916015625
0.142,-0.350341796875,-6.556396484375,4.814697265625
0.1425,-1.391357421875,-5.915771484375,5.335205078125
0.143,-2.632568359375,-4.994873046875,5.775634765625
0.1435,-3.953857421875,-3.793701171875,6.135986328125
0.144,-4.834716796875,-2.712646484375,6.216064453125
0.1445,-5.315185546875,-1.991943359375,6.256103515625
0.145,-5.435302734375,-1.231201171875,5.815673828125
0.1455,-5.315185546875,-0.310302734375,5.014892578125
0.146,-5.355224609375,1.051025390625,4.174072265625
0.1465,-5.355224609375,2.372314453125,3.133056640625
0.147,-5.275146484375,3.333251953125,2.252197265625
0.1475,-4.994873046875,4.013916015625,1.531494140625
0.148,-4.354248046875,4.414306640625,0.650634765625
0.1485,-3.473388671875,4.774658203125,-0.630615234375
0.149,-2.432373046875,5.255126953125,-2.031982421875
0.1495,-1.431396484375,5.495361328125,-3.193115234375
0.15,-0.830810546875,5.815673828125,-4.154052734375
0.1505,0.130126953125,5.695556640625,-4.874755859375
0.151,1.251220703125,4.934814453125,-5.315185546875
0.1515,2.492431640625,3.973876953125,-5.795654296875
0.152,3.653564453125,2.852783203125,-6.115966796875
0.1525,4.454345703125,1.891845703125,-6.276123046875
0.153,4.814697265625,1.211181640625,-6.236083984375
0.1535,4.814697265625,0.450439453125,-5.755615234375
0.154,4.814697265625,-0.590576171875,-5.034912109375
0.1545,4.934814453125,-1.871826171875,-4.154052734375
0.155,4.934814453125,-3.072998046875,-3.193115234375
0.1555,4.854736328125,-3.993896484375,-2.392333984375
0.156,4.534423828125,-4.634521484375,-1.631591796875
0.1565,3.853759765625,-5.034912109375,-0.630615234375
0.157,2.972900390625,-5.515380859375,0.610595703125
0.1575,1.931884765625,-5.915771484375,2.052001953125
0.158,1.091064453125,-6.276123046875,3.213134765625
0.1585,0.410400390625,-6.556396484375,4.134033203125
0.159,-0.630615234375,-6.236083984375,4.814697265625
0.1595,-1.791748046875,-5.395263671875,5.295166015625
0.16,-3.153076171875,-4.434326171875,5.775634765625
0.1605,-4.194091796875,-3.353271484375,6.015869140625
0.161,-4.914794921875,-2.512451171875,6.176025390625
0.1615,-5.195068359375,-1.791748046875,6.015869140625
0.162,-5.155029296875,-0.910888671875,5.415283203125
0.1625,-5.235107421875,0.250244140625,4.694580078125
0.163,-5.355224609375,1.571533203125,3.733642578125
0.1635,-5.315185546875,2.732666015625,2.812744140625
0.164,-5.195068359375,3.533447265625,2.052001953125
0.1645,-4.754638671875,4.093994140625,1.251220703125
0.165,-3.873779296875,4.494384765625,0.130126953125
0.1655,-2.992919921875,4.974853515625,-1.271240234375
0.166,-1.951904296875,5.375244140625,-2.592529296875
0.1665,-1.231201171875,5.735595703125,-3.713623046875
0.167,-0.510498046875,5.815673828125,-4.514404296875
0.1675,0.650634765625,5.255126953125,-5.074951171875
0.168,1.931884765625,4.374267578125,-5.595458984375
0.1685,3.253173828125,3.213134765625,-6.035888671875
0.169,4.174072265625,2.172119140625,-6.196044921875
0.1695,4.654541015625,1.491455078125,-6.316162109375
0.17,4.854736328125,0.730712890625,-5.915771484375
0.1705,4.814697265625,-0.310302734375,-5.235107421875
0.171,4.934814453125,-1.511474609375,-4.394287109375
0.1715,4.974853515625,-2.872802734375,-3.353271484375
0.172,4.894775390625,-3.833740234375,-2.512451171875
0.1725,4.734619140625,-4.634521484375,-1.751708984375
0.173,4.093994140625,-4.994873046875,-0.870849609375
0.1735,3.173095703125,-5.395263671875,0.410400390625
0.174,2.092041015625,-5.875732421875,1.851806640625
0.1745,1.171142578125,-6.156005859375,3.093017578125
0.175,0.490478515625,-6.556396484375,4.093994140625
0.1755,-0.510498046875,-6.356201171875,4.814697265625
0.176,-1.671630859375,-5.515380859375,5.295166015625
0.1765,-2.992919921875,-4.554443359375,5.775634765625
0.177,-4.194091796875,-3.353271484375,6.095947265625
0.1775,-4.994873046875,-2.432373046875,6.135986328125
0.178,-5.315185546875,-1.671630859375,6.055908203125
0.1785,-5.315185546875,-0.870849609375,5.495361328125
0.179,-5.275146484375,0.290283203125,4.694580078125
0.1795,-5.355224609375,1.571533203125,3.733642578125
0.18,-5.275146484375,2.852783203125,2.692626953125
0.1805,-5.195068359375,3.693603515625,1.931884765625
0.181,-4.794677734375,4.214111328125,1.131103515625
0.1815,-3.953857421875,4.574462890625,0.130126953125
0.182,-2.992919921875,5.014892578125,-1.271240234375
0.1825,-1.911865234375,5.415283203125,-2.712646484375
0.183,-1.111083984375,5.695556640625,-3.793701171875
0.1835,-0.430419921875,5.895751953125,-4.674560546875
0.184,0.650634765625,5.415283203125,-5.235107421875
0.1845,1.931884765625,4.454345703125,-5.635498046875
0.185,3.293212890625,3.333251953125,-6.115966796875
0.1855,4.334228515625,2.092041015625,-6.316162109375
0.186,4.894775390625,1.411376953125,-6.396240234375
0.1865,5.094970703125,0.610595703125,-6.115966796875
0.187,5.014892578125,-0.350341796875,-5.395263671875
0.1875,5.014892578125,-1.551513671875,-4.514404296875
0.188,5.054931640625,-2.952880859375,-3.353271484375
