wavelength,x,y,z
0.0,9.419189453125,17.787353515625,-26.936279296875
0.0005,6.095947265625,20.750244140625,-26.656005859375
0.001,-0.310302734375,23.873291015625,-23.572998046875
0.0015,-4.954833984375,26.035400390625,-21.210693359375
0.002,-9.959716796875,26.836181640625,-17.126708984375
0.0025,-15.885498046875,27.516845703125,-12.041748046875
0.003,-19.208740234375,25.955322265625,-7.317138671875
0.0035,-22.772216796875,25.514892578125,-3.353271484375
0.004,-25.134521484375,22.592041015625,1.931884765625
0.0045,-27.496826171875,19.909423828125,6.896728515625
0.005,-27.216552734375,14.744384765625,11.821533203125
0.0055,-27.336669921875,9.819580078125,16.826416015625
0.006,-26.415771484375,6.176025390625,19.589111328125
0.0065,-24.493896484375,0.650634765625,23.152587890625
0.007,-22.251708984375,-3.753662109375,25.154541015625
0.0075,-18.928466796875,-9.118896484375,27.076416015625
0.008,-13.523193359375,-14.724365234375,27.316650390625
0.0085,-8.358154296875,-18.648193359375,26.075439453125
0.009,-4.954833984375,-21.611083984375,25.594970703125
0.0095,1.211181640625,-24.333740234375,22.351806640625
0.01,5.815673828125,-26.415771484375,19.989501953125
0.0105,11.260986328125,-26.656005859375,14.904541015625
0.011,16.586181640625,-27.296630859375,10.380126953125
0.0115,19.789306640625,-25.975341796875,6.055908203125
0.012,23.272705078125,-24.814208984375,1.411376953125
0.0125,25.434814453125,-22.051513671875,-3.513427734375
0.013,27.516845703125,-18.888427734375,-8.678466796875
0.0135,26.876220703125,-13.443115234375,-13.483154296875
0.014,26.756103515625,-8.918701171875,-17.927490234375
0.0145,25.915283203125,-5.395263671875,-20.610107421875
0.015,23.673095703125,0.370361328125,-24.013427734375
0.0155,21.230712890625,4.894775390625,-26.015380859375
0.016,16.826416015625,10.660400390625,-27.296630859375
0.0165,12.021728515625,15.625244140625,-27.496826171875
0.017,6.896728515625,19.388916015625,-26.135498046875
0.0175,2.852783203125,22.151611328125,-24.934326171875
0.018,-3.193115234375,24.994384765625,-21.811279296875
0.0185,-8.157958984375,26.996337890625,-19.048583984375
0.019,-13.723388671875,26.555908203125,-13.202880859375
0.0195,-17.967529296875,26.876220703125,-9.399169921875
0.02,-21.170654296875,25.635009765625,-5.114990234375
0.0205,-24.373779296875,23.793212890625,0.010009765625
0.021,-26.415771484375,20.630126953125,5.094970703125
0.0215,-28.137451171875,16.786376953125,10.700439453125
0.022,-27.216552734375,11.260986328125,15.264892578125
0.0225,-26.896240234375,7.016845703125,19.188720703125
0.023,-25.614990234375,3.173095703125,21.711181640625
0.0235,-23.212646484375,-2.752685546875,25.114501953125
0.024,-20.209716796875,-7.717529296875,27.036376953125
0.0245,-14.724365234375,-13.763427734375,27.476806640625
0.025,-10.520263671875,-17.847412109375,27.396728515625
0.0255,-5.475341796875,-21.410888671875,25.915283203125
0.026,-0.990966796875,-23.653076171875,23.833251953125
0.0265,4.814697265625,-26.175537109375,20.750244140625
0.027,10.500244140625,-28.057373046875,17.026611328125
0.0275,15.825439453125,-27.056396484375,10.900634765625
0.028,19.468994140625,-27.216552734375,7.537353515625
0.0285,22.632080078125,-25.534912109375,2.812744140625
0.029,25.554931640625,-23.372802734375,-2.272216796875
0.0295,27.196533203125,-19.809326171875,-7.437255859375
0.03,28.237548828125,-15.204833984375,-13.122802734375
0.0305,27.196533203125,-10.119873046875,-17.166748046875
0.031,26.555908203125,-5.875732421875,-20.770263671875
0.0315,24.634033203125,-1.831787109375,-22.812255859375
0.032,22.271728515625,3.973876953125,-26.135498046875
0.0325,18.468017578125,9.339111328125,-27.777099609375
0.033,12.702392578125,15.024658203125,-27.576904296875
0.0335,8.978759765625,18.508056640625,-27.256591796875
0.034,3.773681640625,21.951416015625,-25.574951171875
0.0345,-1.191162109375,24.193603515625,-23.012451171875
0.035,-6.356201171875,26.195556640625,-19.969482421875
0.0355,-12.642333984375,27.677001953125,-15.405029296875
0.036,-16.966552734375,26.395751953125,-9.919677734375
0.0365,-20.289794921875,26.395751953125,-6.716552734375
0.037,-23.092529296875,24.233642578125,-1.831787109375
0.0375,-25.975341796875,22.031494140625,3.333251953125
0.038,-27.096435546875,17.947509765625,8.458251953125
0.0385,-27.656982421875,12.942626953125,14.023681640625
0.039,-26.776123046875,8.658447265625,17.467041015625
0.0395,-25.935302734375,4.294189453125,20.990478515625
0.04,-23.653076171875,-0.070068359375,22.992431640625
0.0405,-21.450927734375,-5.315185546875,25.915283203125
0.041,-16.806396484375,-11.361083984375,27.196533203125
0.0415,-11.281005859375,-16.165771484375,26.475830078125
0.042,-8.037841796875,-19.208740234375,26.315673828125
0.0425,-2.712646484375,-22.211669921875,24.033447265625
0.043,2.252197265625,-24.614013671875,21.631103515625
0.0435,7.056884765625,-26.055419921875,18.387939453125
0.044,13.583251953125,-27.296630859375,13.302978515625
0.0445,17.266845703125,-26.015380859375,8.498291015625
0.045,20.790283203125,-25.975341796875,5.094970703125
0.0455,23.192626953125,-23.452880859375,0.170166015625
0.046,25.955322265625,-21.250732421875,-4.834716796875
0.0465,26.676025390625,-16.806396484375,-9.959716796875
0.047,26.876220703125,-11.801513671875,-15.164794921875
0.0475,26.195556640625,-8.157958984375,-18.127685546875
0.048,24.994384765625,-3.393310546875,-21.651123046875
0.0485,22.672119140625,1.051025390625,-23.733154296875
0.049,20.229736328125,6.015869140625,-26.215576171875
0.0495,15.144775390625,12.382080078125,-27.416748046875
0.05,9.859619140625,16.666259765625,-26.295654296875
0.0505,6.696533203125,19.869384765625,-26.335693359375
0.051,0.770751953125,22.672119140625,-23.372802734375
0.0515,-4.114013671875,25.194580078125,-21.130615234375
0.052,-9.158935546875,26.115478515625,-17.166748046875
0.0525,-15.284912109375,27.076416015625,-12.201904296875
0.053,-18.488037109375,25.795166015625,-7.837646484375
0.0535,-22.171630859375,25.434814453125,-3.873779296875
0.054,-24.493896484375,22.511962890625,1.331298828125
0.0545,-26.976318359375,19.869384765625,6.456298828125
0.055,-27.216552734375,14.824462890625,11.741455078125
0.0555,-27.216552734375,9.859619140625,16.666259765625
0.056,-26.575927734375,6.416259765625,19.468994140625
0.0565,-24.614013671875,0.890869140625,22.992431640625
0.057,-22.171630859375,-3.873779296875,25.154541015625
0.0575,-18.768310546875,-9.239013671875,27.036376953125
0.058,-13.483154296875,-15.124755859375,27.677001953125
0.0585,-8.318115234375,-18.888427734375,26.235595703125
0.059,-4.834716796875,-21.891357421875,25.795166015625
0.0595,1.371337890625,-24.533935546875,22.431884765625
0.06,6.336181640625,-26.816162109375,19.869384765625
0.0605,11.821533203125,-27.016357421875,14.744384765625
0.061,17.306884765625,-27.656982421875,10.099853515625
0.0615,20.309814453125,-26.255615234375,5.815673828125
0.062,23.753173828125,-25.014404296875,1.091064453125
0.0625,25.835205078125,-21.931396484375,-4.033935546875
0.063,27.877197265625,-18.648193359375,-9.279052734375
0.0635,27.276611328125,-13.202880859375,-14.203857421875
0.064,26.956298828125,-8.558349609375,-18.528076171875
0.0645,26.115478515625,-5.195068359375,-21.090576171875
0.065,23.633056640625,0.610595703125,-24.253662109375
0.0655,20.990478515625,5.375244140625,-26.255615234375
0.066,16.546142578125,11.020751953125,-27.416748046875
0.0665,11.701416015625,16.145751953125,-27.697021484375
0.067,6.696533203125,19.669189453125,-26.215576171875
0.0675,2.652587890625,22.431884765625,-24.934326171875
0.068,-3.233154296875,24.914306640625,-21.691162109375
0.0685,-8.197998046875,26.916259765625,-18.928466796875
0.069,-13.643310546875,26.395751953125,-13.082763671875
0.0695,-18.007568359375,26.756103515625,-9.279052734375
0.07,-20.970458984375,25.594970703125,-5.235107421875
0.0705,-24.053466796875,23.673095703125,-0.270263671875
0.071,-25.935302734375,20.429931640625,4.854736328125
0.0715,-27.536865234375,16.626220703125,10.219970703125
0.072,-26.936279296875,11.421142578125,14.864501953125
0.0725,-26.415771484375,7.056884765625,18.628173828125
0.073,-25.414794921875,3.573486328125,21.110595703125
0.0735,-22.892333984375,-2.192138671875,24.273681640625
0.074,-20.129638671875,-7.036865234375,26.315673828125
0.0745,-14.724365234375,-12.762451171875,26.555908203125
0.075,-10.720458984375,-17.086669921875,26.876220703125
0.0755,-5.955810546875,-20.369873046875,25.394775390625
0.076,-1.591552734375,-22.772216796875,23.512939453125
0.0765,3.973876953125,-25.094482421875,20.429931640625
0.077,9.459228515625,-27.056396484375,17.026611328125
0.0775,14.744384765625,-26.255615234375,11.180908203125
0.078,18.508056640625,-26.495849609375,7.737548828125
0.0785,21.430908203125,-25.214599609375,3.693603515625
0.079,24.433837890625,-23.132568359375,-1.431396484375
0.0795,26.115478515625,-19.649169921875,-6.556396484375
0.08,27.156494140625,-15.204833984375,-12.041748046875
0.0805,26.635986328125,-10.600341796875,-16.165771484375
0.081,25.915283203125,-6.356201171875,-19.689208984375
0.0815,24.353759765625,-2.552490234375,-21.891357421875
0.082,22.031494140625,3.133056640625,-25.054443359375
0.0825,18.588134765625,8.578369140625,-27.016357421875
0.083,12.862548828125,14.103759765625,-26.776123046875
0.0835,9.259033203125,17.827392578125,-26.896240234375
0.084,4.334228515625,21.110595703125,-25.294677734375
0.0845,-0.670654296875,23.593017578125,-22.932373046875
0.085,-5.915771484375,25.594970703125,-19.809326171875
0.0855,-12.081787109375,27.196533203125,-15.405029296875
0.086,-16.526123046875,26.195556640625,-10.159912109375
0.0865,-20.009521484375,26.235595703125,-6.756591796875
0.087,-22.732177734375,24.313720703125,-2.232177734375
0.0875,-25.695068359375,22.071533203125,3.012939453125
0.088,-27.016357421875,17.947509765625,8.378173828125
0.0885,-27.496826171875,12.782470703125,13.983642578125
0.089,-26.976318359375,8.778564453125,17.547119140625
0.0895,-26.015380859375,4.294189453125,21.070556640625
0.09,-23.813232421875,-0.110107421875,23.192626953125
0.0905,-21.450927734375,-5.435302734375,25.995361328125
0.091,-16.766357421875,-11.681396484375,27.556884765625
0.0915,-11.080810546875,-16.606201171875,26.756103515625
0.092,-7.877685546875,-19.809326171875,26.716064453125
0.0925,-2.552490234375,-22.732177734375,24.393798828125
0.093,2.572509765625,-25.174560546875,21.871337890625
0.0935,7.697509765625,-26.575927734375,18.267822265625
0.094,14.384033203125,-27.897216796875,13.102783203125
0.0945,18.027587890625,-26.615966796875,8.338134765625
0.095,21.631103515625,-26.415771484375,4.654541015625
0.0955,23.993408203125,-23.733154296875,-0.350341796875
0.096,26.676025390625,-21.410888671875,-5.395263671875
0.0965,27.396728515625,-16.686279296875,-10.800537109375
0.097,27.356689453125,-11.441162109375,-16.005615234375
0.0975,26.796142578125,-7.917724609375,-18.968505859375
0.098,25.314697265625,-2.992919921875,-22.411865234375
0.0985,22.832275390625,1.651611328125,-24.453857421875
0.099,20.149658203125,6.736572265625,-26.776123046875
0.0995,14.864501953125,13.182861328125,-27.897216796875
0.1,9.419189453125,17.346923828125,-26.615966796875
0.1005,6.256103515625,20.510009765625,-26.615966796875
0.101,0.450439453125,23.152587890625,-23.492919921875
0.1015,-4.514404296875,25.594970703125,-21.170654296875
0.102,-9.679443359375,26.395751953125,-16.926513671875
0.1025,-15.725341796875,27.196533203125,-11.881591796875
0.103,-18.728271484375,25.995361328125,-7.797607421875
0.1035,-22.411865234375,25.354736328125,-3.593505859375
0.104,-24.493896484375,22.511962890625,1.331298828125
0.1045,-26.856201171875,19.789306640625,6.416259765625
0.105,-27.176513671875,14.584228515625,11.861572265625
0.1055,-26.896240234375,9.579345703125,16.586181640625
0.106,-26.535888671875,6.536376953125,19.268798828125
0.1065,-24.373779296875,1.131103515625,22.552001953125
0.107,-22.131591796875,-3.393310546875,24.714111328125
0.1075,-18.648193359375,-8.678466796875,26.435791015625
0.108,-13.483154296875,-14.764404296875,27.316650390625
0.1085,-8.438232421875,-18.287841796875,25.795166015625
0.109,-5.074951171875,-21.410888671875,25.554931640625
0.1095,0.690673828125,-23.693115234375,22.231689453125
0.11,5.455322265625,-26.055419921875,19.909423828125
0.1105,11.060791015625,-26.335693359375,14.784423828125
0.111,16.506103515625,-26.936279296875,10.139892578125
0.1115,19.348876953125,-26.015380859375,6.496337890625
0.112,22.952392578125,-24.654052734375,1.611572265625
0.1125,24.914306640625,-21.931396484375,-3.072998046875
0.113,26.876220703125,-18.768310546875,-8.238037109375
0.1135,26.836181640625,-13.483154296875,-13.443115234375
0.114,26.275634765625,-8.758544921875,-17.647216796875
0.1145,25.995361328125,-5.795654296875,-20.329833984375
0.115,23.432861328125,0.010009765625,-23.372802734375
0.1155,21.230712890625,4.494384765625,-25.655029296875
0.116,16.626220703125,10.179931640625,-26.656005859375
0.1165,12.021728515625,15.585205078125,-27.416748046875
0.117,7.096923828125,18.948486328125,-25.935302734375
0.1175,3.052978515625,22.071533203125,-25.014404296875
0.118,-2.712646484375,24.353759765625,-21.691162109375
0.1185,-7.677490234375,26.635986328125,-19.128662109375
0.119,-13.403076171875,26.275634765625,-13.202880859375
0.1195,-17.887451171875,26.635986328125,-9.279052734375
0.12,-20.810302734375,25.795166015625,-5.635498046875
0.1205,-24.173583984375,23.833251953125,-0.310302734375
0.121,-26.015380859375,20.550048828125,4.774658203125
0.1215,-27.576904296875,16.666259765625,10.219970703125
0.122,-27.256591796875,11.501220703125,15.104736328125
0.1225,-26.535888671875,6.896728515625,18.948486328125
0.123,-25.815185546875,3.533447265625,21.591064453125
0.1235,-23.052490234375,-2.432373046875,24.674072265625
0.124,-20.329833984375,-7.437255859375,26.836181640625
0.1245,-14.524169921875,-13.322998046875,26.916259765625
0.125,-10.560302734375,-17.767333984375,27.396728515625
0.1255,-5.715576171875,-21.010498046875,25.795166015625
0.126,-1.151123046875,-23.653076171875,23.953369140625
0.1265,4.534423828125,-25.695068359375,20.510009765625
0.127,10.179931640625,-27.737060546875,17.066650390625
0.1275,15.625244140625,-26.896240234375,10.900634765625
0.128,19.388916015625,-26.896240234375,7.257080078125
0.1285,22.391845703125,-25.655029296875,3.213134765625
0.129,25.314697265625,-23.452880859375,-2.072021484375
0.1295,26.876220703125,-19.609130859375,-7.317138671875
0.13,27.677001953125,-14.964599609375,-12.802490234375
0.1305,27.196533203125,-10.280029296875,-17.046630859375
0.131,26.155517578125,-5.795654296875,-20.449951171875
0.1315,24.714111328125,-2.072021484375,-22.692138671875
0.132,22.031494140625,3.573486328125,-25.574951171875
0.1325,18.548095703125,9.098876953125,-27.536865234375
0.133,12.502197265625,14.664306640625,-26.936279296875
0.1335,8.938720703125,18.427978515625,-27.096435546875
0.134,4.093994140625,21.510986328125,-25.454833984375
0.1345,-1.031005859375,24.073486328125,-23.052490234375
0.135,-6.115966796875,25.675048828125,-19.729248046875
0.1355,-12.201904296875,27.396728515625,-15.405029296875
0.136,-16.606201171875,26.275634765625,-10.119873046875
0.1365,-20.169677734375,26.075439453125,-6.516357421875
0.137,-22.732177734375,24.393798828125,-2.352294921875
0.1375,-25.614990234375,22.111572265625,2.852783203125
0.138,-26.856201171875,17.947509765625,8.218017578125
0.1385,-27.176513671875,12.822509765625,13.623291015625
0.139,-26.936279296875,8.978759765625,17.306884765625
0.1395,-25.775146484375,4.414306640625,20.750244140625
0.14,-23.973388671875,0.250244140625,22.992431640625
0.1405,-21.490966796875,-4.994873046875,25.594970703125
0.141,-17.006591796875,-11.200927734375,27.276611328125
0.1415,-11.240966796875,-16.045654296875,26.355712890625
0.142,-7.997802734375,-19.448974609375,26.555908203125
0.1425,-3.072998046875,-22.291748046875,24.433837890625
0.143,2.252197265625,-25.014404296875,22.071533203125
0.1435,7.177001953125,-26.215576171875,18.427978515625
0.144,13.783447265625,-27.576904296875,13.343017578125
0.1445,17.547119140625,-26.575927734375,8.738525390625
0.145,21.390869140625,-26.295654296875,4.734619140625
0.1455,23.753173828125,-24.053466796875,0.170166015625
0.146,26.435791015625,-21.651123046875,-4.954833984375
0.1465,27.276611328125,-16.926513671875,-10.520263671875
0.147,27.156494140625,-11.561279296875,-15.685302734375
0.1475,26.916259765625,-8.197998046875,-18.848388671875
0.148,25.354736328125,-3.072998046875,-22.371826171875
0.1485,23.192626953125,1.571533203125,-24.694091796875
0.149,20.349853515625,6.536376953125,-26.776123046875
0.1495,15.184814453125,13.142822265625,-28.177490234375
0.15,9.539306640625,17.427001953125,-26.736083984375
0.1505,6.176025390625,20.870361328125,-26.896240234375
0.151,0.330322265625,23.552978515625,-23.813232421875
0.1515,-4.754638671875,26.195556640625,-21.531005859375
0.152,-9.959716796875,26.796142578125,-17.086669921875
0.1525,-16.165771484375,27.596923828125,-11.921630859375
0.153,-19.328857421875,26.395751953125,-7.717529296875
0.1535,-23.292724609375,25.715087890625,-3.113037109375
0.154,-25.334716796875,22.912353515625,1.771728515625
0.1545,-27.576904296875,20.069580078125,6.896728515625
0.155,-27.897216796875,14.744384765625,12.502197265625
0.1555,-27.416748046875,9.339111328125,17.346923828125
0.156,-27.096435546875,6.256103515625,20.189697265625
0.1565,-24.814208984375,0.490478515625,23.552978515625
0.157,-22.531982421875,-4.154052734375,25.795166015625
0.1575,-18.728271484375,-9.359130859375,27.196533203125
0.158,-13.443115234375,-15.525146484375,28.037353515625
0.1585,-8.077880859375,-19.168701171875,26.315673828125
0.159,-4.514404296875,-22.451904296875,26.035400390625
0.1595,1.291259765625,-24.694091796875,22.632080078125
0.16,6.216064453125,-27.056396484375,20.189697265625
0.1605,11.821533203125,-27.096435546875,14.784423828125
0.161,17.386962890625,-27.616943359375,9.899658203125
0.1615,20.269775390625,-26.575927734375,6.095947265625
0.162,24.033447265625,-25.054443359375,0.970947265625
0.1625,25.875244140625,-22.251708984375,-3.753662109375
0.163,27.556884765625,-18.888427734375,-8.798583984375
0.1635,27.516845703125,-13.443115234375,-14.123779296875
0.164,26.716064453125,-8.438232421875,-18.327880859375
0.1645,26.435791015625,-5.395263671875,-21.130615234375
0.165,23.753173828125,0.370361328125,-24.093505859375
0.1655,21.510986328125,4.974853515625,-26.335693359375
0.166,16.746337890625,10.420166015625,-27.016357421875
0.1665,12.021728515625,15.985595703125,-27.777099609375
0.167,7.016845703125,19.348876953125,-26.175537109375
0.1675,2.692626953125,22.592041015625,-25.134521484375
0.168,-2.872802734375,24.714111328125,-21.931396484375
0.1685,-7.797607421875,26.876220703125,-19.288818359375
0.169,-13.403076171875,26.395751953125,-13.322998046875
0.1695,-17.967529296875,26.595947265625,-9.118896484375
0.17,-20.890380859375,25.915283203125,-5.635498046875
0.1705,-24.333740234375,23.833251953125,-0.190185546875
0.171,-26.135498046875,20.790283203125,4.694580078125
0.1715,-27.416748046875,16.826416015625,9.939697265625
0.172,-27.216552734375,11.661376953125,14.904541015625
0.1725,-26.335693359375,6.976806640625,18.708251953125
0.173,-25.775146484375,3.573486328125,21.551025390625
0.1735,-23.092529296875,-2.192138671875,24.473876953125
0.174,-20.610107421875,-7.076904296875,26.836181640625
0.1745,-14.804443359375,-12.802490234375,26.635986328125
0.175,-10.760498046875,-17.447021484375,27.236572265625
0.1755,-5.995849609375,-20.650146484375,25.755126953125
0.176,-1.191162109375,-23.572998046875,23.953369140625
0.1765,4.254150390625,-25.614990234375,20.670166015625
0.177,9.739501953125,-27.697021484375,17.386962890625
0.1775,15.224853515625,-26.816162109375,11.220947265625
0.178,19.188720703125,-26.776123046875,7.377197265625
0.1785,22.111572265625,-25.775146484375,3.533447265625
0.179,25.354736328125,-23.492919921875,-1.951904296875
0.1795,26.956298828125,-19.929443359375,-7.116943359375
0.18,27.596923828125,-15.244873046875,-12.482177734375
0.1805,27.396728515625,-10.600341796875,-16.886474609375
