wavelength,x,y,z
0.0,-21.135620117188,12.377075195312,7.8526611328125
0.0005,-20.695190429688,8.3731689453125,11.456176757812
0.001,-19.734252929688,3.4884033203125,15.339965820312
0.0015,-18.773315429688,-1.1160888671875,18.903442382812
0.002,-17.371948242188,-4.2791748046875,20.785278320312
0.0025,-15.410034179688,-6.7215576171875,21.305786132812
0.003,-12.206909179688,-9.5643310546875,20.945434570312
0.0035,-6.4012451171875,-13.968627929688,19.664184570312
0.004,-1.5565185546875,-17.331909179688,18.422973632812
0.0045,2.9278564453125,-20.374877929688,17.261840820312
0.005,5.8907470703125,-21.536010742188,15.860473632812
0.0055,8.3731689453125,-21.055541992188,13.057739257812
0.006,11.456176757812,-20.775268554688,9.8546142578125
0.0065,15.860473632812,-19.534057617188,4.4493408203125
0.007,19.423950195312,-18.092651367188,-0.5555419921875
0.0075,21.425903320312,-16.811401367188,-3.7186279296875
0.008,22.106567382812,-14.729370117188,-6.2811279296875
0.0085,21.345825195312,-11.526245117188,-8.9637451171875
0.009,20.545043945312,-6.5213623046875,-13.127807617188
0.0095,19.504028320312,-2.1971435546875,-16.651245117188
0.01,18.623168945312,2.1671142578125,-19.974487304688
0.0105,16.941528320312,5.2901611328125,-21.455932617188
0.011,14.138793945312,7.7725830078125,-21.175659179688
0.0115,10.735473632812,10.855590820312,-20.975463867188
0.012,4.4893798828125,15.460083007812,-19.534057617188
0.0125,-0.6356201171875,18.823364257812,-18.052612304688
0.013,-4.1190185546875,20.985473632812,-16.931518554688
0.0135,-6.9217529296875,21.826293945312,-15.249877929688
0.014,-9.6844482421875,21.025512695312,-11.926635742188
0.0145,-13.287963867188,20.264770507812,-7.7225341796875
0.015,-17.211791992188,19.183715820312,-2.8377685546875
0.0155,-20.655151367188,17.662231445312,2.0870361328125
0.016,-21.896362304688,16.060668945312,4.8497314453125
0.0165,-21.976440429688,13.538208007812,7.4522705078125
0.017,-21.495971679688,10.214965820312,10.295043945312
0.0175,-20.334838867188,4.5294189453125,14.779418945312
0.018,-19.173706054688,0.2452392578125,18.062622070312
0.0185,-18.252807617188,-3.4783935546875,20.825317382812
0.019,-16.370971679688,-6.3612060546875,21.906372070312
0.0195,-12.967651367188,-8.9237060546875,21.065551757812
0.02,-8.8436279296875,-12.407104492188,20.585083007812
0.0205,-2.9979248046875,-16.651245117188,19.183715820312
0.021,2.2471923828125,-19.934448242188,17.582153320312
0.0215,5.0899658203125,-21.335815429688,16.260864257812
0.022,7.6925048828125,-21.736206054688,14.298950195312
0.0225,10.535278320312,-20.975463867188,10.975708007812
0.023,14.739379882812,-19.774291992188,5.7706298828125
0.0235,18.222778320312,-18.613159179688,1.2462158203125
0.024,21.185668945312,-17.291870117188,-2.9578857421875
0.0245,21.826293945312,-15.490112304688,-5.4403076171875
0.025,21.385864257812,-12.447143554688,-8.1629638671875
0.0255,20.825317382812,-8.8035888671875,-11.286010742188
0.026,19.864379882812,-3.4383544921875,-15.570190429688
0.0265,18.623168945312,1.1260986328125,-18.933471679688
0.027,17.421997070312,4.1290283203125,-20.815307617188
0.0275,15.540161132812,6.6915283203125,-21.736206054688
0.028,11.816528320312,9.6143798828125,-20.735229492188
0.0285,6.5313720703125,13.698364257812,-19.734252929688
0.029,1.5665283203125,17.421997070312,-18.653198242188
0.0295,-3.1981201171875,20.384887695312,-17.211791992188
0.03,-5.7205810546875,21.185668945312,-15.690307617188
0.0305,-8.2830810546875,21.105590820312,-13.207885742188
0.031,-11.406127929688,20.505004882812,-9.7645263671875
0.0315,-15.730346679688,19.143676757812,-4.3192138671875
0.032,-19.173706054688,17.902465820312,0.4454345703125
0.0325,-21.255737304688,16.661254882812,3.6885986328125
0.033,-21.736206054688,14.579223632812,6.0909423828125
0.0335,-21.015502929688,11.135864257812,8.8135986328125
0.034,-20.334838867188,6.6915283203125,12.657348632812
0.0345,-19.494018554688,2.0469970703125,16.501098632812
0.035,-18.332885742188,-2.3572998046875,19.824340820312
0.0355,-16.731323242188,-4.9598388671875,20.945434570312
0.036,-14.649291992188,-7.5223388671875,21.305786132812
0.0365,-10.445190429688,-10.525268554688,20.625122070312
0.037,-4.7596435546875,-15.009643554688,19.143676757812
0.0375,0.0850830078125,-18.453002929688,18.022583007812
0.038,3.9688720703125,-20.855346679688,16.821411132812
0.0385,6.4512939453125,-21.415893554688,15.099731445312
0.039,9.2940673828125,-20.855346679688,12.016723632812
0.0395,12.817504882812,-20.214721679688,8.0528564453125
0.04,16.781372070312,-18.933471679688,2.9678955078125
0.0405,20.104614257812,-17.612182617188,-1.6766357421875
0.041,21.465942382812,-16.210815429688,-4.4793701171875
0.0415,21.586059570312,-13.808471679688,-7.0018310546875
0.042,20.825317382812,-10.124877929688,-9.9246826171875
0.0425,19.864379882812,-5.0399169921875,-14.008666992188
0.043,19.023559570312,-0.6356201171875,-17.532104492188
0.0435,18.022583007812,3.2882080078125,-20.454956054688
0.044,15.980590820312,5.8907470703125,-21.095581054688
0.0445,13.097778320312,8.5733642578125,-21.015502929688
0.045,8.6534423828125,12.296997070312,-20.334838867188
0.0455,3.0079345703125,16.340942382812,-18.893432617188
0.046,-1.9168701171875,19.504028320312,-17.492065429688
0.0465,-4.9998779296875,21.225708007812,-16.370971679688
0.047,-7.5623779296875,21.465942382812,-14.288940429688
0.0475,-10.565307617188,20.665161132812,-10.765502929688
0.048,-14.489135742188,19.744262695312,-6.0408935546875
0.0485,-18.212768554688,18.543090820312,-1.2362060546875
0.049,-21.135620117188,17.101684570312,3.0479736328125
0.0495,-21.816284179688,15.259887695312,5.4903564453125
0.05,-21.656127929688,12.417114257812,8.2530517578125
0.0505,-20.895385742188,8.2530517578125,11.656372070312
0.051,-19.854370117188,3.1680908203125,15.740356445312
0.0515,-18.773315429688,-1.1561279296875,19.023559570312
0.052,-17.692260742188,-4.5594482421875,21.305786132812
0.0525,-15.410034179688,-7.0418701171875,21.626098632812
0.053,-11.806518554688,-9.9246826171875,20.905395507812
0.0535,-6.8016357421875,-13.848510742188,20.104614257812
0.054,-1.3162841796875,-17.772338867188,18.623168945312
0.0545,3.2882080078125,-20.535034179688,17.141723632812
0.055,5.8507080078125,-21.495971679688,15.780395507812
0.0555,8.5333251953125,-21.495971679688,13.378051757812
0.056,11.816528320312,-20.655151367188,9.3341064453125
0.0565,15.740356445312,-19.494018554688,4.4493408203125
0.057,19.303833007812,-18.212768554688,-0.2352294921875
0.0575,21.626098632812,-16.891479492188,-3.9588623046875
0.058,21.706176757812,-14.609252929688,-6.2410888671875
0.0585,21.265747070312,-11.286010742188,-9.0838623046875
0.059,20.464965820312,-6.7215576171875,-12.847534179688
0.0595,19.504028320312,-2.0770263671875,-16.731323242188
0.06,18.302856445312,2.2071533203125,-19.694213867188
0.0605,16.941528320312,5.0098876953125,-21.215698242188
0.061,14.459106445312,7.6524658203125,-21.375854492188
0.0615,10.174926757812,10.895629882812,-20.414916992188
0.062,5.0499267578125,14.859497070312,-19.293823242188
0.0625,-0.1551513671875,18.422973632812,-18.092651367188
0.063,-4.1590576171875,20.785278320312,-16.691284179688
0.0635,-6.4012451171875,21.105590820312,-15.009643554688
0.064,-9.1239013671875,20.945434570312,-12.246948242188
0.0645,-12.887573242188,19.904418945312,-7.7625732421875
0.065,-16.531127929688,18.623168945312,-2.9578857421875
0.0655,-19.814331054688,17.421997070312,1.3663330078125
0.066,-21.495971679688,16.020629882812,4.4893798828125
0.0665,-21.295776367188,13.538208007812,6.8516845703125
0.067,-20.695190429688,9.8546142578125,9.8946533203125
0.0675,-19.814331054688,5.1300048828125,13.738403320312
0.068,-18.933471679688,0.6456298828125,17.421997070312
0.0685,-17.812377929688,-3.1981201171875,20.104614257812
0.069,-16.130737304688,-5.5203857421875,20.785278320312
0.0695,-13.448120117188,-8.2030029296875,20.905395507812
0.07,-8.6033935546875,-11.926635742188,19.864379882812
0.0705,-3.3983154296875,-15.650268554688,18.543090820312
0.071,1.3262939453125,-18.973510742188,17.381958007812
0.0715,4.6495361328125,-20.855346679688,16.220825195312
0.072,6.8917236328125,-20.895385742188,14.098754882812
0.0725,9.7344970703125,-20.494995117188,11.175903320312
0.073,13.818481445312,-19.534057617188,6.4112548828125
0.0735,17.381958007812,-18.372924804688,1.6466064453125
0.074,20.264770507812,-17.051635742188,-2.3172607421875
0.0745,21.265747070312,-15.410034179688,-4.9197998046875
0.075,20.985473632812,-12.807495117188,-7.4422607421875
0.0755,20.304809570312,-8.4031982421875,-11.045776367188
0.076,19.343872070312,-3.8787841796875,-14.689331054688
0.0765,18.543090820312,0.4854736328125,-18.132690429688
0.077,17.421997070312,3.9288330078125,-20.535034179688
0.0775,15.059692382812,6.2510986328125,-20.575073242188
0.078,12.176879882812,9.0938720703125,-20.535034179688
0.0785,6.6915283203125,13.338012695312,-19.494018554688
0.079,1.5665283203125,16.821411132812,-18.132690429688
0.0795,-2.5574951171875,19.584106445312,-16.971557617188
0.08,-5.4403076171875,21.105590820312,-15.530151367188
0.0805,-7.9227294921875,20.625122070312,-13.167846679688
0.081,-11.205932617188,19.984497070312,-9.4842529296875
0.0815,-15.089721679688,19.023559570312,-4.7596435546875
0.082,-18.693237304688,17.782348632812,0.0050048828125
0.0825,-20.975463867188,16.421020507812,3.5284423828125
0.083,-21.215698242188,14.459106445312,5.8106689453125
0.0835,-21.055541992188,11.456176757812,8.6134033203125
0.084,-20.174682617188,6.4913330078125,12.737426757812
0.0845,-19.133666992188,2.0469970703125,16.220825195312
0.085,-18.292846679688,-1.8768310546875,19.263793945312
0.0855,-17.051635742188,-4.9998779296875,21.185668945312
0.086,-14.248901367188,-7.3621826171875,20.825317382812
0.0865,-10.685424804688,-10.445190429688,20.344848632812
0.087,-5.1600341796875,-14.609252929688,19.263793945312
0.0875,0.1251220703125,-18.212768554688,17.862426757812
0.088,3.7686767578125,-20.414916992188,16.621215820312
0.0885,6.2510986328125,-21.135620117188,15.059692382812
0.089,8.9737548828125,-20.895385742188,12.296997070312
0.0895,12.777465820312,-19.934448242188,7.6925048828125
0.09,16.340942382812,-18.733276367188,3.2481689453125
0.0905,19.704223632812,-17.532104492188,-1.2762451171875
0.091,21.385864257812,-16.170776367188,-4.3192138671875
0.0915,21.225708007812,-13.488159179688,-6.6014404296875
0.092,20.785278320312,-10.325073242188,-9.6444091796875
0.0925,19.864379882812,-5.1600341796875,-13.968627929688
0.093,18.903442382812,-0.6756591796875,-17.411987304688
0.0935,17.862426757812,2.8477783203125,-19.854370117188
0.094,16.300903320312,5.6104736328125,-21.175659179688
0.0945,13.137817382812,8.2930908203125,-20.775268554688
0.095,8.4932861328125,12.016723632812,-19.974487304688
0.0955,3.5684814453125,15.740356445312,-18.893432617188
0.096,-1.4764404296875,19.143676757812,-17.492065429688
0.0965,-4.7596435546875,20.825317382812,-16.170776367188
0.097,-7.0018310546875,20.865356445312,-14.128784179688
0.0975,-9.8446044921875,20.585083007812,-11.486206054688
0.098,-14.168823242188,19.423950195312,-5.9608154296875
0.0985,-17.452026367188,18.222778320312,-1.3563232421875
0.099,-20.374877929688,17.101684570312,2.3673095703125
0.0995,-21.576049804688,15.500122070312,5.2901611328125
0.1,-21.095581054688,12.457153320312,7.6524658203125
0.1005,-20.575073242188,8.4532470703125,11.095825195312
0.101,-19.694213867188,3.7286376953125,15.099731445312
0.1015,-18.653198242188,-0.8358154296875,18.583129882812
0.102,-17.452026367188,-4.0389404296875,20.625122070312
0.1025,-15.450073242188,-6.4012451171875,21.105590820312
0.103,-12.407104492188,-9.2440185546875,20.865356445312
0.1035,-6.5614013671875,-13.608276367188,19.544067382812
0.104,-1.7967529296875,-16.971557617188,18.302856445312
0.1045,2.5675048828125,-19.934448242188,17.181762695312
0.105,5.6104736328125,-21.215698242188,15.740356445312
0.1055,7.9327392578125,-20.855346679688,13.097778320312
0.106,10.935668945312,-20.454956054688,9.9747314453125
0.1065,15.339965820312,-19.213745117188,4.7296142578125
0.107,18.863403320312,-17.892456054688,-0.1951904296875
0.1075,20.865356445312,-16.691284179688,-3.2781982421875
0.108,21.465942382812,-14.769409179688,-5.8406982421875
0.1085,20.945434570312,-11.566284179688,-8.4031982421875
0.109,20.144653320312,-6.7215576171875,-12.607299804688
0.1095,19.223754882812,-2.4373779296875,-15.970581054688
0.11,18.342895507812,1.7266845703125,-19.293823242188
0.1105,16.781372070312,4.8096923828125,-20.895385742188
0.111,14.138793945312,7.2120361328125,-20.615112304688
0.1115,10.855590820312,10.214965820312,-20.494995117188
0.112,4.8096923828125,14.739379882812,-19.093627929688
0.1125,-0.1951904296875,18.062622070312,-17.692260742188
0.113,-3.5584716796875,20.184692382812,-16.651245117188
0.1135,-6.4012451171875,21.065551757812,-15.089721679688
0.114,-9.0037841796875,20.424926757812,-11.926635742188
0.1145,-12.527221679688,19.704223632812,-7.8426513671875
0.115,-16.370971679688,18.663208007812,-3.1981201171875
0.1155,-19.734252929688,17.301879882812,1.5665283203125
0.116,-21.095581054688,15.820434570312,4.3292236328125
0.1165,-21.135620117188,13.418090820312,6.7315673828125
0.117,-20.775268554688,10.335083007812,9.4542236328125
0.1175,-19.734252929688,4.8497314453125,13.938598632812
0.118,-18.693237304688,0.6055908203125,17.141723632812
0.1185,-17.852416992188,-2.9178466796875,19.864379882812
0.119,-16.210815429688,-5.7205810546875,21.105590820312
0.1195,-12.967651367188,-8.2030029296875,20.344848632812
0.12,-9.0438232421875,-11.606323242188,19.944458007812
0.1205,-3.3983154296875,-15.810424804688,18.663208007812
0.121,1.6866455078125,-19.173706054688,17.181762695312
0.1215,4.4893798828125,-20.655151367188,15.980590820312
0.122,7.0518798828125,-21.015502929688,14.138793945312
0.1225,9.7344970703125,-20.454956054688,11.215942382812
0.123,13.938598632812,-19.293823242188,6.0108642578125
0.1235,17.502075195312,-18.252807617188,1.5665283203125
0.124,20.344848632812,-17.091674804688,-2.4373779296875
0.1245,21.225708007812,-15.410034179688,-4.9998779296875
0.125,20.785278320312,-12.487182617188,-7.4822998046875
0.1255,20.424926757812,-8.9637451171875,-10.565307617188
0.126,19.504028320312,-3.7586669921875,-14.849487304688
0.1265,18.382934570312,0.7657470703125,-18.292846679688
0.127,17.261840820312,3.6485595703125,-20.214721679688
0.1275,15.380004882812,6.3712158203125,-21.015502929688
0.128,11.896606445312,9.0137939453125,-20.214721679688
0.1285,6.6915283203125,13.177856445312,-19.373901367188
0.129,1.8468017578125,16.821411132812,-18.252807617188
0.1295,-2.8778076171875,19.864379882812,-16.931518554688
0.13,-5.4002685546875,20.785278320312,-15.530151367188
0.1305,-7.9627685546875,20.665161132812,-13.087768554688
0.131,-10.925659179688,20.224731445312,-9.9647216796875
0.1315,-15.329956054688,18.943481445312,-4.4393310546875
0.132,-18.813354492188,17.702270507812,0.2852783203125
0.1325,-20.935424804688,16.501098632812,3.4083251953125
0.133,-21.536010742188,14.579223632812,5.9307861328125
0.1335,-20.735229492188,11.255981445312,8.5333251953125
0.134,-20.134643554688,6.8516845703125,12.296997070312
0.1345,-19.293823242188,2.2471923828125,16.140747070312
0.135,-18.292846679688,-2.2772216796875,19.463989257812
0.1355,-16.691284179688,-4.8397216796875,20.665161132812
0.136,-14.489135742188,-7.3221435546875,20.985473632812
0.1365,-10.805541992188,-10.285034179688,20.424926757812
0.137,-4.7596435546875,-14.769409179688,18.903442382812
0.1375,0.0050048828125,-18.212768554688,17.742309570312
0.138,3.8487548828125,-20.494995117188,16.581176757812
0.1385,6.3311767578125,-21.135620117188,14.899536132812
0.139,9.0938720703125,-20.494995117188,11.816528320312
0.1395,12.457153320312,-19.974487304688,8.1329345703125
0.14,16.461059570312,-18.773315429688,3.0880126953125
0.1405,19.824340820312,-17.411987304688,-1.6766357421875
0.141,21.105590820312,-15.970581054688,-4.1990966796875
0.1415,21.385864257812,-13.608276367188,-6.7615966796875
0.142,20.625122070312,-10.204956054688,-9.4842529296875
0.1425,19.704223632812,-5.0799560546875,-13.808471679688
0.143,18.863403320312,-0.8358154296875,-17.251831054688
0.1435,17.942504882812,3.0479736328125,-20.214721679688
0.144,15.940551757812,5.6905517578125,-20.935424804688
0.1445,12.937622070312,8.2930908203125,-20.575073242188
0.145,8.9337158203125,11.816528320312,-20.174682617188
0.1455,3.0479736328125,15.980590820312,-18.773315429688
0.146,-1.7967529296875,19.223754882812,-17.251831054688
0.1465,-4.7596435546875,20.825317382812,-16.130737304688
0.147,-7.3621826171875,21.145629882812,-14.168823242188
0.1475,-10.244995117188,20.424926757812,-10.765502929688
0.148,-14.168823242188,19.504028320312,-6.0809326171875
0.1485,-17.812377929688,18.382934570312,-1.3563232421875
0.149,-20.815307617188,16.941528320312,2.9278564453125
0.1495,-21.495971679688,15.059692382812,5.3302001953125
0.15,-21.455932617188,12.296997070312,8.0928955078125
0.1505,-20.695190429688,8.4932861328125,11.215942382812
0.151,-19.574096679688,3.2481689453125,15.420043945312
0.1515,-18.453002929688,-1.0760498046875,18.623168945312
0.152,-17.492065429688,-4.3592529296875,20.865356445312
0.1525,-15.329956054688,-6.8416748046875,21.305786132812
0.153,-11.686401367188,-9.5643310546875,20.505004882812
0.1535,-6.9217529296875,-13.528198242188,19.704223632812
0.154,-1.4364013671875,-17.331909179688,18.302856445312
0.1545,3.2081298828125,-20.054565429688,16.941528320312
0.155,5.6905517578125,-21.055541992188,15.460083007812
0.1555,8.2930908203125,-21.135620117188,13.137817382812
0.156,11.376098632812,-20.334838867188,9.4542236328125
0.1565,15.380004882812,-19.093627929688,4.4093017578125
0.157,18.823364257812,-17.932495117188,0.0050048828125
0.1575,21.185668945312,-16.611206054688,-3.7586669921875
0.158,21.345825195312,-14.409057617188,-6.0008544921875
0.1585,20.865356445312,-11.245971679688,-8.8436279296875
0.159,20.144653320312,-6.9217529296875,-12.407104492188
0.1595,19.223754882812,-2.1571044921875,-16.290893554688
0.16,18.062622070312,2.0469970703125,-19.253784179688
0.1605,16.701293945312,4.8497314453125,-20.655151367188
0.161,14.258911132812,7.3721923828125,-21.015502929688
0.1615,10.174926757812,10.535278320312,-19.894409179688
0.162,4.9698486328125,14.539184570312,-19.013549804688
0.1625,0.0050048828125,18.102661132812,-17.892456054688
0.163,-4.0389404296875,20.505004882812,-16.531127929688
0.1635,-6.2811279296875,20.865356445312,-14.769409179688
0.164,-9.0838623046875,20.665161132812,-12.126831054688
0.1645,-12.687377929688,19.864379882812,-7.9227294921875
0.165,-16.491088867188,18.543090820312,-2.9578857421875
0.1655,-19.694213867188,17.341918945312,1.4063720703125
0.166,-21.375854492188,15.940551757812,4.4893798828125
0.1665,-21.295776367188,13.498168945312,6.8516845703125
0.167,-20.695190429688,9.8546142578125,9.8946533203125
0.1675,-19.814331054688,5.0899658203125,13.778442382812
0.168,-18.933471679688,0.6456298828125,17.421997070312
0.1685,-17.772338867188,-3.2381591796875,20.184692382812
0.169,-16.010620117188,-5.7205810546875,20.825317382812
0.1695,-13.528198242188,-8.4832763671875,20.905395507812
0.17,-8.7235107421875,-12.006713867188,19.984497070312
0.1705,-3.3582763671875,-15.730346679688,18.543090820312
0.171,1.4063720703125,-18.973510742188,17.341918945312
0.1715,4.8096923828125,-20.975463867188,16.140747070312
0.172,7.0518798828125,-20.895385742188,14.058715820312
0.1725,9.9346923828125,-20.494995117188,11.055786132812
0.173,13.898559570312,-19.614135742188,6.3311767578125
0.1735,17.542114257812,-18.292846679688,1.5665283203125
0.174,20.344848632812,-17.091674804688,-2.4774169921875
0.1745,21.265747070312,-15.410034179688,-4.9998779296875
0.175,21.105590820312,-12.687377929688,-7.5623779296875
0.1755,20.384887695312,-8.4832763671875,-11.045776367188
0.176,19.343872070312,-3.8787841796875,-14.729370117188
0.1765,18.503051757812,0.4454345703125,-18.212768554688
0.177,17.341918945312,3.9288330078125,-20.615112304688
0.1775,15.059692382812,6.2510986328125,-20.695190429688
0.178,12.096801757812,9.0938720703125,-20.494995117188
