wavelength,x,y,z
0.0,-3.3282470703125,20.615112304688,-17.502075195312
0.0005,-6.6915283203125,21.495971679688,-15.139770507812
0.001,-10.014770507812,21.576049804688,-12.096801757812
0.0015,-13.458129882812,21.495971679688,-8.7735595703125
0.002,-17.381958007812,20.294799804688,-3.8087158203125
0.0025,-20.144653320312,18.132690429688,1.0760498046875
0.003,-21.505981445312,15.970581054688,4.5194091796875
0.0035,-22.306762695312,13.408081054688,7.8826904296875
0.004,-22.146606445312,9.9246826171875,11.205932617188
0.0045,-21.746215820312,5.7205810546875,15.089721679688
0.005,-20.825317382812,1.7567138671875,18.172729492188
0.0055,-18.863403320312,-2.6075439453125,21.776245117188
0.006,-16.300903320312,-5.9307861328125,21.335815429688
0.0065,-13.458129882812,-9.2540283203125,23.057495117188
0.007,-10.014770507812,-12.537231445312,23.057495117188
0.0075,-4.4893798828125,-16.501098632812,20.414916992188
0.008,0.2752685546875,-18.983520507812,18.533081054688
0.0085,3.9588623046875,-19.223754882812,16.531127929688
0.009,7.2020263671875,-21.345825195312,14.248901367188
0.0095,10.565307617188,-21.105590820312,10.885620117188
0.01,14.208862304688,-20.665161132812,7.0819091796875
0.0105,17.612182617188,-19.504028320312,2.7176513671875
0.011,20.094604492188,-17.261840820312,-2.0069580078125
0.0115,20.935424804688,-15.099731445312,-5.0499267578125
0.012,21.616088867188,-12.377075195312,-8.3331298828125
0.0125,21.616088867188,-9.2139892578125,-10.255004882812
0.013,20.895385742188,-4.6895751953125,-15.420043945312
0.0135,19.694213867188,-0.8057861328125,-18.102661132812
0.014,17.852416992188,3.0379638671875,-20.104614257812
0.0145,15.289916992188,7.6824951171875,-20.945434570312
0.015,11.846557617188,9.6043701171875,-21.025512695312
0.0155,8.2830810546875,13.287963867188,-21.025512695312
0.016,3.2381591796875,16.851440429688,-19.744262695312
0.0165,-1.5665283203125,19.053588867188,-17.462036132812
0.017,-4.5694580078125,20.134643554688,-15.700317382812
0.0175,-7.9727783203125,20.895385742188,-13.418090820312
0.018,-11.296020507812,20.695190429688,-10.094848632812
0.0185,-15.179809570312,19.934448242188,-5.5704345703125
0.019,-18.222778320312,18.573120117188,-1.3262939453125
0.0195,-20.384887695312,16.451049804688,2.9578857421875
0.02,-21.025512695312,15.369995117188,5.9608154296875
0.0205,-21.505981445312,11.045776367188,9.3641357421875
0.021,-21.465942382812,7.6024169921875,12.847534179688
0.0215,-20.785278320312,3.2381591796875,16.571166992188
0.022,-18.983520507812,-1.0059814453125,19.013549804688
0.0225,-17.021606445312,-4.3692626953125,20.454956054688
0.023,-14.619262695312,-7.5723876953125,21.375854492188
0.0235,-10.895629882812,-10.935668945312,21.135620117188
0.024,-6.4913330078125,-14.699340820312,20.454956054688
0.0245,-1.8067626953125,-16.661254882812,20.494995117188
0.025,2.8377685546875,-19.784301757812,16.891479492188
0.0255,5.8006591796875,-19.223754882812,14.769409179688
0.026,9.2039794921875,-21.025512695312,12.166870117188
0.0265,12.767456054688,-20.585083007812,8.5633544921875
0.027,16.370971679688,-19.624145507812,3.9588623046875
0.0275,19.093627929688,-17.822387695312,-0.4854736328125
0.028,20.735229492188,-15.740356445312,-4.1690673828125
0.0285,21.295776367188,-13.137817382812,-7.2120361328125
0.029,21.415893554688,-9.8946533203125,-10.575317382812
0.0295,21.095581054688,-6.1309814453125,-14.138793945312
0.03,20.334838867188,-2.0870361328125,-17.421997070312
0.0305,18.172729492188,2.2371826171875,-19.584106445312
0.031,15.890502929688,5.4403076171875,-19.223754882812
0.0315,13.247924804688,8.7635498046875,-21.305786132812
0.032,9.2440185546875,12.286987304688,-21.025512695312
0.0325,4.5194091796875,15.810424804688,-19.984497070312
0.033,1.2762451171875,18.493041992188,-18.222778320312
0.0335,-4.0889892578125,20.174682617188,-16.180786132812
0.034,-6.9718017578125,21.776245117188,-13.938598632812
0.0345,-10.375122070312,20.735229492188,-10.975708007812
0.035,-12.817504882812,20.254760742188,-7.0118408203125
0.0355,-17.421997070312,18.973510742188,-2.5274658203125
0.036,-19.664184570312,16.851440429688,1.9168701171875
0.0365,-20.905395507812,14.729370117188,5.1600341796875
0.037,-21.465942382812,12.046752929688,8.3631591796875
0.0375,-21.505981445312,8.4432373046875,12.046752929688
0.038,-20.785278320312,4.4393310546875,15.410034179688
0.0385,-19.584106445312,0.4354248046875,18.252807617188
0.039,-17.502075195312,-3.5684814453125,20.174682617188
0.0395,-15.059692382812,-6.4913330078125,20.615112304688
0.04,-12.216918945312,-9.6944580078125,21.135620117188
0.0405,-7.7725830078125,-13.458129882812,20.615112304688
0.041,-3.0479736328125,-16.741333007812,19.293823242188
0.0415,1.3963623046875,-18.743286132812,17.211791992188
0.042,4.8397216796875,-20.184692382812,16.651245117188
0.0425,7.9227294921875,-20.545043945312,12.927612304688
0.043,11.205932617188,-20.344848632812,9.7244873046875
0.0435,14.849487304688,-19.704223632812,5.6004638671875
0.044,17.812377929688,-18.262817382812,2.5574951171875
0.0445,19.814331054688,-16.100708007812,-2.8077392578125
0.045,20.454956054688,-13.898559570312,-5.6905517578125
0.0455,21.015502929688,-11.215942382812,-7.6925048828125
0.046,20.775268554688,-7.3721923828125,-12.697387695312
0.0465,20.134643554688,-3.5284423828125,-15.860473632812
0.047,18.613159179688,0.3553466796875,-18.142700195312
0.0475,16.611206054688,3.9588623046875,-19.864379882812
0.048,13.888549804688,6.9617919921875,-20.184692382812
0.0485,10.805541992188,10.164916992188,-20.384887695312
0.049,7.6824951171875,13.928588867188,-19.904418945312
0.0495,1.7567138671875,16.971557617188,-18.463012695312
0.05,-2.3272705078125,18.693237304688,-16.380981445312
0.0505,-3.8487548828125,19.694213867188,-14.619262695312
0.051,-8.4932861328125,20.134643554688,-12.056762695312
0.0515,-12.056762695312,19.694213867188,-8.3331298828125
0.052,-15.420043945312,18.933471679688,-4.4493408203125
0.0525,-18.102661132812,17.291870117188,1.2762451171875
0.053,-19.864379882812,15.249877929688,3.6785888671875
0.0535,-20.224731445312,12.767456054688,6.4813232421875
0.054,-20.705200195312,9.9647216796875,9.7244873046875
0.0545,-20.424926757812,5.8807373046875,13.568237304688
0.055,-19.624145507812,2.0369873046875,16.691284179688
0.0555,-17.702270507812,-1.7266845703125,18.533081054688
0.056,-15.740356445312,-5.0098876953125,19.854370117188
0.0565,-13.137817382812,-8.0528564453125,20.334838867188
0.057,-9.3341064453125,-11.616333007812,20.094604492188
0.0575,-5.1700439453125,-14.779418945312,19.373901367188
0.058,-0.4454345703125,-17.582153320312,17.652221679688
0.0585,3.4783935546875,-19.143676757812,15.650268554688
0.059,6.2811279296875,-19.624145507812,13.568237304688
0.0595,9.4041748046875,-20.184692382812,11.165893554688
0.06,13.408081054688,-19.463989257812,6.6815185546875
0.0605,16.370971679688,-18.463012695312,2.7977294921875
0.061,18.573120117188,-16.621215820312,-1.2462158203125
0.0615,20.054565429688,-14.619262695312,-4.5694580078125
0.062,20.254760742188,-12.016723632812,-7.4122314453125
0.0625,20.535034179688,-8.7735595703125,-10.895629882812
0.063,20.094604492188,-4.9298095703125,-14.379028320312
0.0635,18.893432617188,-0.9659423828125,-17.301879882812
0.064,16.851440429688,2.7576904296875,-18.903442382812
0.0645,14.649291992188,5.7205810546875,-19.664184570312
0.065,12.006713867188,8.9237060546875,-20.264770507812
0.0655,7.4022216796875,12.767456054688,-19.664184570312
0.066,3.4383544921875,15.650268554688,-18.743286132812
0.0665,-0.8458251953125,17.852416992188,-16.861450195312
0.067,-4.3692626953125,19.293823242188,-15.059692382812
0.0675,-7.2520751953125,19.494018554688,-12.577270507812
0.068,-10.295043945312,19.694213867188,-10.054809570312
0.0685,-14.258911132812,19.053588867188,-5.6104736328125
0.069,-17.141723632812,17.572143554688,-1.3262939453125
0.0695,-18.863403320312,15.690307617188,2.2772216796875
0.07,-20.104614257812,13.608276367188,5.3201904296875
0.0705,-20.224731445312,10.965698242188,8.3231201171875
0.071,-20.224731445312,7.0418701171875,12.166870117188
0.0715,-19.584106445312,3.5584716796875,15.089721679688
0.072,-18.262817382812,-0.4454345703125,17.652221679688
0.0725,-16.260864257812,-3.8887939453125,20.494995117188
0.073,-13.738403320312,-6.6514892578125,19.494018554688
0.0735,-11.175903320312,-9.6544189453125,20.094604492188
0.074,-6.2911376953125,-13.618286132812,19.293823242188
0.0745,-1.9669189453125,-16.380981445312,19.213745117188
0.075,1.7166748046875,-18.022583007812,16.130737304688
0.0755,4.9598388671875,-17.942504882812,14.369018554688
0.076,7.9227294921875,-19.423950195312,11.806518554688
0.0765,11.326049804688,-17.942504882812,8.3631591796875
0.077,14.689331054688,-18.623168945312,4.5994873046875
0.0775,17.411987304688,-16.941528320312,0.2752685546875
0.078,18.933471679688,-15.059692382812,-3.1680908203125
0.0785,19.494018554688,-12.737426757812,-5.9307861328125
0.079,19.934448242188,-10.295043945312,-7.6925048828125
0.0795,19.654174804688,-5.9307861328125,-12.977661132812
0.08,18.893432617188,-2.5274658203125,-15.740356445312
0.0805,17.291870117188,1.0760498046875,-17.582153320312
0.081,16.651245117188,4.4793701171875,-19.143676757812
0.0815,12.527221679688,7.3621826171875,-19.263793945312
0.082,9.3240966796875,10.605346679688,-19.463989257812
0.0825,5.0799560546875,14.208862304688,-18.863403320312
0.083,0.5155029296875,16.851440429688,-17.101684570312
0.0835,-2.8878173828125,18.172729492188,-15.420043945312
0.084,-5.7706298828125,19.053588867188,-13.498168945312
0.0845,-8.8135986328125,19.373901367188,-11.095825195312
0.085,-12.777465820312,18.693237304688,-6.6915283203125
0.0855,-15.660278320312,17.892456054688,-3.0880126953125
0.086,-17.862426757812,16.130737304688,0.8358154296875
0.0865,-19.343872070312,14.208862304688,4.1990966796875
0.087,-19.584106445312,11.566284179688,7.0418701171875
0.0875,-19.984497070312,8.8436279296875,10.204956054688
0.088,-19.544067382812,4.6795654296875,13.968627929688
0.0885,-18.422973632812,0.7957763671875,16.731323242188
0.089,-16.541137695312,-2.5274658203125,18.092651367188
0.0895,-14.739379882812,-5.5303955078125,19.373901367188
0.09,-11.896606445312,-8.4532470703125,19.574096679688
0.0905,-7.5723876953125,-12.256958007812,19.133666992188
0.091,-3.7286376953125,-15.219848632812,18.332885742188
0.0915,0.7957763671875,-17.381958007812,16.451049804688
0.092,3.9588623046875,-18.703247070312,14.729370117188
0.0925,6.8016357421875,-19.063598632812,12.447143554688
0.093,9.8045654296875,-19.423950195312,10.044799804688
0.0935,13.848510742188,-18.663208007812,5.4002685546875
0.094,16.611206054688,-17.301879882812,1.3162841796875
0.0945,18.292846679688,-15.540161132812,-1.9669189453125
0.095,19.453979492188,-13.618286132812,-5.0899658203125
0.0955,19.614135742188,-10.775512695312,-8.0128173828125
0.096,19.694213867188,-7.3721923828125,-11.576293945312
0.0965,19.293823242188,-2.5675048828125,-14.739379882812
0.097,17.852416992188,0.1951904296875,-17.301879882812
0.0975,15.810424804688,3.4783935546875,-18.583129882812
0.098,13.448120117188,7.6824951171875,-17.942504882812
0.0985,10.845581054688,9.3641357421875,-19.744262695312
0.099,5.8006591796875,13.448120117188,-18.943481445312
0.0995,1.8367919921875,16.130737304688,-17.662231445312
0.1,-1.9669189453125,17.892456054688,-15.980590820312
0.1005,-3.8487548828125,19.053588867188,-14.058715820312
0.101,-8.1729736328125,19.133666992188,-11.416137695312
0.1015,-11.416137695312,19.173706054688,-8.3731689453125
0.102,-15.019653320312,18.412963867188,-4.1690673828125
0.1025,-17.662231445312,16.571166992188,0.2352294921875
0.103,-18.943481445312,14.769409179688,3.2781982421875
0.1035,-19.824340820312,12.487182617188,6.2811279296875
0.104,-20.064575195312,9.7645263671875,9.3240966796875
0.1045,-19.744262695312,5.4403076171875,13.328002929688
0.105,-18.983520507812,1.9969482421875,16.090698242188
0.1055,-17.462036132812,-1.6866455078125,18.212768554688
0.106,-15.420043945312,-4.8897705078125,19.453979492188
0.1065,-12.537231445312,-7.8927001953125,19.534057617188
0.107,-9.5343017578125,-11.095825195312,19.854370117188
0.1075,-4.5294189453125,-14.899536132812,18.893432617188
0.108,0.1151123046875,-17.381958007812,17.011596679688
0.1085,3.2381591796875,-18.903442382812,16.651245117188
0.109,6.4412841796875,-19.704223632812,13.448120117188
0.1095,9.5643310546875,-19.704223632812,10.565307617188
0.11,13.287963867188,-19.143676757812,6.4813232421875
0.1105,16.330932617188,-18.262817382812,2.5975341796875
0.111,18.693237304688,-16.340942382812,-1.7266845703125
0.1115,19.654174804688,-14.258911132812,-4.5694580078125
0.112,20.134643554688,-11.616333007812,-6.4112548828125
0.1125,20.334838867188,-8.8135986328125,-10.775512695312
0.113,19.814331054688,-4.4493408203125,-14.659301757812
0.1135,18.412963867188,-0.6456298828125,-17.261840820312
0.114,16.691284179688,2.8778076171875,-18.783325195312
0.1145,14.529174804688,6.1209716796875,-19.944458007812
0.115,11.205932617188,9.2840576171875,-19.904418945312
0.1155,7.3221435546875,12.887573242188,-19.744262695312
0.116,2.9178466796875,16.210815429688,-18.783325195312
0.1165,-1.8067626953125,18.412963867188,-16.621215820312
0.117,-4.7296142578125,19.333862304688,-14.779418945312
0.1175,-7.8927001953125,19.974487304688,-12.537231445312
0.118,-11.095825195312,19.974487304688,-9.4942626953125
0.1185,-14.979614257812,19.053588867188,-4.8497314453125
0.119,-17.822387695312,17.652221679688,-0.6856689453125
0.1195,-19.664184570312,15.650268554688,3.0379638671875
0.12,-20.424926757812,13.368041992188,6.0809326171875
0.1205,-20.585083007812,10.204956054688,9.4041748046875
0.121,-20.585083007812,6.8016357421875,12.847534179688
0.1215,-19.944458007812,2.7977294921875,16.250854492188
0.122,-18.142700195312,-1.4864501953125,18.613159179688
0.1225,-16.020629882812,-4.5294189453125,19.694213867188
0.123,-13.818481445312,-6.4112548828125,20.575073242188
0.1235,-8.9737548828125,-10.895629882812,20.454956054688
0.124,-5.4903564453125,-14.619262695312,19.534057617188
0.1245,-1.1661376953125,-17.462036132812,18.212768554688
0.125,3.1580810546875,-17.942504882812,16.130737304688
0.1255,6.0809326171875,-19.944458007812,14.048706054688
0.126,9.3641357421875,-20.224731445312,11.205932617188
0.1265,12.727416992188,-20.064575195312,7.8426513671875
0.127,16.290893554688,-18.943481445312,3.3983154296875
0.1275,18.813354492188,-16.981567382812,-1.1260986328125
0.128,20.134643554688,-14.779418945312,-4.1290283203125
0.1285,20.735229492188,-12.577270507812,-7.3321533203125
0.129,20.655151367188,-9.4542236328125,-10.695434570312
0.1295,20.254760742188,-5.3302001953125,-14.138793945312
0.13,19.453979492188,-1.6065673828125,-17.061645507812
0.1305,17.452026367188,2.4774169921875,-19.263793945312
0.131,15.089721679688,5.5604248046875,-19.944458007812
0.1315,12.407104492188,8.7635498046875,-19.223754882812
0.132,8.7235107421875,12.206909179688,-20.464965820312
0.1325,5.1199951171875,15.770385742188,-19.263793945312
0.133,-0.6055908203125,18.132690429688,-17.341918945312
0.1335,-4.1290283203125,19.654174804688,-15.660278320312
0.134,-7.1719970703125,20.174682617188,-13.418090820312
0.1345,-10.495239257812,20.174682617188,-8.9737548828125
0.135,-12.817504882812,19.694213867188,-6.3712158203125
0.1355,-17.341918945312,18.453002929688,-2.0069580078125
0.136,-19.664184570312,16.290893554688,2.3572998046875
0.1365,-20.464965820312,14.128784179688,5.3201904296875
0.137,-21.105590820312,11.566284179688,8.6434326171875
0.1375,-21.025512695312,7.9627685546875,12.086791992188
0.138,-20.344848632812,3.7987060546875,15.530151367188
0.1385,-18.983520507812,-0.1651611328125,18.212768554688
0.139,-17.101684570312,-3.8887939453125,20.094604492188
0.1395,-14.619262695312,-6.8917236328125,20.615112304688
0.14,-11.496215820312,-10.134887695312,20.815307617188
0.1405,-7.2921142578125,-13.818481445312,20.454956054688
0.141,-2.4473876953125,-17.141723632812,19.133666992188
0.1415,2.0770263671875,-19.183715820312,16.851440429688
0.142,5.2401123046875,-20.264770507812,15.089721679688
0.1425,8.4432373046875,-20.705200195312,12.647338867188
0.143,11.966674804688,-19.223754882812,9.0438232421875
0.1435,15.610229492188,-19.744262695312,4.7996826171875
0.144,18.533081054688,-18.142700195312,0.3953857421875
0.1445,20.535034179688,-16.020629882812,-3.7286376953125
0.145,20.855346679688,-13.658325195312,-6.6514892578125
0.1455,21.415893554688,-10.575317382812,-10.014770507812
0.146,21.175659179688,-6.6915283203125,-13.698364257812
0.1465,20.454956054688,-2.6075439453125,-17.021606445312
0.147,18.533081054688,1.5164794921875,-19.263793945312
0.1475,16.491088867188,5.0799560546875,-20.825317382812
0.148,13.648315429688,8.2830810546875,-21.225708007812
0.1485,9.9246826171875,11.806518554688,-21.145629882812
0.149,5.4403076171875,15.450073242188,-19.223754882812
0.1495,0.5555419921875,18.533081054688,-18.903442382812
0.15,-3.7286376953125,20.254760742188,-16.541137695312
0.1505,-6.7315673828125,20.855346679688,-14.499145507812
0.151,-10.214965820312,21.255737304688,-11.696411132812
0.1515,-14.058715820312,20.695190429688,-7.4522705078125
0.152,-17.381958007812,19.574096679688,-3.2081298828125
0.1525,-19.984497070312,17.572143554688,1.4364013671875
0.153,-21.626098632812,16.651245117188,5.1600341796875
0.1535,-21.906372070312,12.487182617188,8.4432373046875
0.154,-22.146606445312,9.1639404296875,12.006713867188
0.1545,-21.586059570312,4.7996826171875,15.810424804688
0.155,-19.223754882812,0.5155029296875,19.053588867188
0.1555,-18.142700195312,-3.5684814453125,20.775268554688
0.156,-15.900512695312,-6.8516845703125,21.816284179688
0.1565,-11.536254882812,-8.9737548828125,22.216674804688
0.157,-8.2930908203125,-14.058715820312,21.656127929688
0.1575,-3.7286376953125,-17.261840820312,20.454956054688
0.158,2.5574951171875,-19.904418945312,18.372924804688
0.1585,5.3602294921875,-21.425903320312,16.130737304688
0.159,8.3631591796875,-21.505981445312,13.448120117188
0.1595,11.766479492188,-20.505004882812,10.565307617188
0.16,15.930541992188,-20.865356445312,5.7205810546875
0.1605,19.053588867188,-19.303833007812,1.1961669921875
0.161,21.095581054688,-17.101684570312,-3.1280517578125
0.1615,22.256713867188,-14.739379882812,-6.5714111328125
0.162,22.336791992188,-11.616333007812,-9.7745361328125
0.1625,22.256713867188,-7.7725830078125,-13.658325195312
0.163,21.455932617188,-3.7286376953125,-16.981567382812
0.1635,19.974487304688,0.7557373046875,-19.864379882812
0.164,17.452026367188,4.7596435546875,-21.425903320312
0.1645,14.689331054688,7.8826904296875,-20.505004882812
0.165,11.686401367188,11.245971679688,-22.306762695312
0.1655,6.3612060546875,15.490112304688,-21.345825195312
0.166,1.8367919921875,18.332885742188,-19.824340820312
0.1665,-2.6475830078125,20.294799804688,-17.662231445312
0.167,-6.3712158203125,21.616088867188,-15.540161132812
0.1675,-9.4942626953125,21.455932617188,-12.537231445312
0.168,-12.857543945312,21.415893554688,-9.2540283203125
0.1685,-16.781372070312,20.535034179688,-4.4893798828125
0.169,-19.824340820312,18.533081054688,0.3953857421875
0.1695,-21.425903320312,16.170776367188,4.1590576171875
0.17,-22.146606445312,13.648315429688,7.4422607421875
0.1705,-22.466918945312,10.565307617188,10.805541992188
0.171,-22.026489257812,6.0408935546875,14.969604492188
0.1715,-21.025512695312,2.2371826171875,17.732299804688
0.172,-19.263793945312,-1.9669189453125,20.254760742188
0.1725,-16.901489257812,-5.7706298828125,23.057495117188
0.173,-13.738403320312,-8.8135986328125,21.696166992188
0.1735,-10.615356445312,-12.096801757812,21.976440429688
0.174,-5.2901611328125,-16.180786132812,20.935424804688
0.1745,-0.3653564453125,-18.983520507812,19.013549804688
0.175,3.5584716796875,-20.464965820312,16.811401367188
0.1755,6.9617919921875,-21.505981445312,14.729370117188
0.176,10.285034179688,-21.505981445312,11.646362304688
0.1765,15.369995117188,-20.905395507812,7.4422607421875
0.177,17.371948242188,-20.024536132812,3.3182373046875
0.1775,20.174682617188,-17.862426757812,-1.4864501953125
0.178,21.576049804688,-15.620239257812,-3.8487548828125
