wavelength,x,y,z
0.0,-5.5504150390625,-1.9468994140625,6.5013427734375
0.0005,-5.9107666015625,-1.2261962890625,6.4212646484375
0.001,-5.7506103515625,-0.3453369140625,5.7005615234375
0.0015,-5.4703369140625,0.8958740234375,4.4993896484375
0.002,-5.3902587890625,2.2572021484375,3.3782958984375
0.0025,-5.1900634765625,3.4984130859375,2.1771240234375
0.003,-4.9898681640625,4.4593505859375,1.1761474609375
0.0035,-4.5093994140625,5.0599365234375,0.3753662109375
0.004,-3.5084228515625,5.1800537109375,-0.8258056640625
0.0045,-2.1871337890625,5.4202880859375,-2.2672119140625
0.005,-0.9859619140625,5.7406005859375,-3.7886962890625
0.0055,0.0150146484375,5.8206787109375,-4.8297119140625
0.006,0.6956787109375,6.0208740234375,-5.7906494140625
0.0065,1.7366943359375,5.3802490234375,-6.3111572265625
0.007,3.0579833984375,4.0989990234375,-6.5914306640625
0.0075,4.2991943359375,2.8978271484375,-6.9117431640625
0.008,5.2200927734375,1.6566162109375,-6.9117431640625
0.0085,5.7406005859375,0.6156005859375,-6.7515869140625
0.009,5.8206787109375,-0.3052978515625,-6.3912353515625
0.0095,5.4202880859375,-1.3062744140625,-5.3502197265625
0.01,5.2200927734375,-2.5474853515625,-4.0289306640625
0.0105,5.0599365234375,-3.9088134765625,-2.7476806640625
0.011,4.7796630859375,-4.9898681640625,-1.5865478515625
0.0115,4.4993896484375,-5.8306884765625,-0.6656494140625
0.012,3.7386474609375,-6.1109619140625,0.3753662109375
0.0125,2.4573974609375,-6.1910400390625,1.6165771484375
0.013,1.0560302734375,-6.3912353515625,3.1781005859375
0.0135,-0.2652587890625,-6.5113525390625,4.5394287109375
0.014,-1.0260009765625,-6.6314697265625,5.5003662109375
0.0145,-1.7467041015625,-6.5513916015625,6.2611083984375
0.015,-2.9078369140625,-5.5103759765625,6.5814208984375
0.0155,-4.2691650390625,-4.1490478515625,6.8216552734375
0.016,-5.3902587890625,-2.8677978515625,6.9818115234375
0.0165,-6.0709228515625,-1.7066650390625,6.7816162109375
0.017,-6.3912353515625,-0.8658447265625,6.6614990234375
0.0175,-6.2711181640625,0.0550537109375,5.9007568359375
0.018,-5.8306884765625,1.2562255859375,4.7396240234375
0.0185,-5.5504150390625,2.5374755859375,3.3782958984375
0.019,-5.3101806640625,3.8587646484375,2.0570068359375
0.0195,-4.9898681640625,4.8197021484375,0.9759521484375
0.02,-4.6295166015625,5.4603271484375,0.1351318359375
0.0205,-3.5885009765625,5.5804443359375,-0.9859619140625
0.021,-2.2271728515625,5.6204833984375,-2.3472900390625
0.0215,-0.9459228515625,5.9007568359375,-3.8687744140625
0.022,0.2552490234375,5.9007568359375,-5.0299072265625
0.0225,0.9359130859375,6.0609130859375,-5.9508056640625
0.023,1.7767333984375,5.7005615234375,-6.5513916015625
0.0235,3.0579833984375,4.4993896484375,-6.7916259765625
0.024,4.2991943359375,3.1781005859375,-7.0718994140625
0.0245,5.3001708984375,1.8167724609375,-7.0718994140625
0.025,5.8607177734375,0.7357177734375,-6.9117431640625
0.0255,6.1009521484375,0.0150146484375,-6.7115478515625
0.026,5.8206787109375,-1.0260009765625,-5.7906494140625
0.0265,5.4202880859375,-2.2271728515625,-4.5093994140625
0.027,5.1400146484375,-3.5484619140625,-3.1881103515625
0.0275,4.8997802734375,-4.7896728515625,-1.9068603515625
0.028,4.6195068359375,-5.6705322265625,-0.9459228515625
0.0285,4.1390380859375,-6.1910400390625,0.0550537109375
0.029,3.0179443359375,-6.2711181640625,1.1361083984375
0.0295,1.5765380859375,-6.3912353515625,2.6175537109375
0.03,0.2952880859375,-6.5513916015625,4.1390380859375
0.0305,-0.7857666015625,-6.5513916015625,5.1800537109375
0.031,-1.4263916015625,-6.7515869140625,6.0609130859375
0.0315,-2.4273681640625,-6.0709228515625,6.4613037109375
0.032,-3.7486572265625,-4.7496337890625,6.7015380859375
0.0325,-4.9097900390625,-3.5484619140625,6.9818115234375
0.033,-5.7906494140625,-2.2672119140625,6.9417724609375
0.0335,-6.3111572265625,-1.2662353515625,6.7415771484375
0.034,-6.3912353515625,-0.4254150390625,6.3812255859375
0.0345,-5.9908447265625,0.6556396484375,5.3402099609375
0.035,-5.7105712890625,1.9368896484375,4.0189208984375
0.0355,-5.4703369140625,3.2581787109375,2.6976318359375
0.036,-5.1500244140625,4.3792724609375,1.5364990234375
0.0365,-4.9498291015625,5.2601318359375,0.5755615234375
0.037,-4.1090087890625,5.5003662109375,-0.4654541015625
0.0375,-2.8677978515625,5.6204833984375,-1.6666259765625
0.038,-1.5465087890625,5.8206787109375,-3.2281494140625
0.0385,-0.2652587890625,5.9007568359375,-4.6295166015625
0.039,0.6156005859375,6.0609130859375,-5.5904541015625
0.0395,1.2962646484375,6.0208740234375,-6.3511962890625
0.04,2.4573974609375,5.0599365234375,-6.7115478515625
0.0405,3.8187255859375,3.6585693359375,-6.9918212890625
0.041,4.9398193359375,2.3773193359375,-7.1119384765625
0.0415,5.6204833984375,1.0960693359375,-7.0718994140625
0.042,6.1009521484375,0.2952880859375,-6.9117431640625
0.0425,5.9407958984375,-0.6656494140625,-6.2310791015625
0.043,5.5804443359375,-1.8267822265625,-4.9898681640625
0.0435,5.3402099609375,-3.1480712890625,-3.7086181640625
0.044,5.0999755859375,-4.5093994140625,-2.3072509765625
0.0445,4.7796630859375,-5.4703369140625,-1.2261962890625
0.045,4.4593505859375,-6.1910400390625,-0.3453369140625
0.0455,3.3782958984375,-6.3511962890625,0.7757568359375
0.046,1.9769287109375,-6.3912353515625,2.2572021484375
0.0465,0.6156005859375,-6.5914306640625,3.8587646484375
0.047,-0.6256103515625,-6.5914306640625,5.0198974609375
0.0475,-1.3062744140625,-6.7515869140625,5.9007568359375
0.048,-2.1070556640625,-6.3912353515625,6.4613037109375
0.0485,-3.4283447265625,-5.1500244140625,6.7415771484375
0.049,-4.7095947265625,-3.8287353515625,7.0218505859375
0.0495,-5.6705322265625,-2.5474853515625,6.9417724609375
0.05,-6.2711181640625,-1.3863525390625,6.7816162109375
0.0505,-6.4713134765625,-0.5855712890625,6.5814208984375
0.051,-6.1510009765625,0.4554443359375,5.6605224609375
0.0515,-5.7506103515625,1.6165771484375,4.3392333984375
0.052,-5.5103759765625,2.9378662109375,3.0579833984375
0.0525,-5.1900634765625,4.0989990234375,1.7366943359375
0.053,-4.9097900390625,5.0198974609375,0.7357177734375
0.0535,-4.3492431640625,5.4603271484375,-0.2252197265625
0.054,-3.2281494140625,5.5404052734375,-1.2662353515625
0.0545,-1.9068603515625,5.7005615234375,-2.7076416015625
0.055,-0.5855712890625,5.8206787109375,-4.1490478515625
0.0555,0.3753662109375,5.9007568359375,-5.1900634765625
0.056,1.0159912109375,6.0609130859375,-6.0709228515625
0.0565,1.9368896484375,5.3802490234375,-6.4713134765625
0.057,3.2181396484375,4.0989990234375,-6.7115478515625
0.0575,4.3392333984375,2.9378662109375,-6.9117431640625
0.058,5.2200927734375,1.6566162109375,-6.8717041015625
0.0585,5.7406005859375,0.6956787109375,-6.7515869140625
0.059,5.8206787109375,-0.1451416015625,-6.3912353515625
0.0595,5.5003662109375,-1.1060791015625,-5.4302978515625
0.06,5.2200927734375,-2.2271728515625,-4.3092041015625
0.0605,5.0198974609375,-3.5484619140625,-3.0279541015625
0.061,4.7396240234375,-4.6295166015625,-1.8668212890625
0.0615,4.5394287109375,-5.5103759765625,-0.9859619140625
0.062,3.8587646484375,-5.9107666015625,0.0150146484375
0.0625,2.7376708984375,-5.9908447265625,1.1361083984375
0.063,1.4964599609375,-6.2310791015625,2.5775146484375
0.0635,0.2952880859375,-6.3511962890625,3.9388427734375
0.064,-0.6256103515625,-6.5113525390625,4.9798583984375
0.0645,-1.2662353515625,-6.6314697265625,5.7806396484375
0.065,-2.2672119140625,-5.8306884765625,6.1409912109375
0.0655,-3.7086181640625,-4.7496337890625,6.4613037109375
0.066,-4.7496337890625,-3.4283447265625,6.7015380859375
0.0665,-5.4703369140625,-2.2672119140625,6.6614990234375
0.067,-5.9908447265625,-1.4263916015625,6.6614990234375
0.0675,-5.9508056640625,-0.6256103515625,6.1009521484375
0.068,-5.6304931640625,0.4954833984375,5.0999755859375
0.0685,-5.4703369140625,1.6566162109375,3.9788818359375
0.069,-5.2701416015625,2.9779052734375,2.6976318359375
0.0695,-5.0699462890625,4.0189208984375,1.6165771484375
0.07,-4.8297119140625,4.8197021484375,0.7757568359375
0.0705,-3.9488525390625,5.0599365234375,-0.3052978515625
0.071,-2.8277587890625,5.2200927734375,-1.5465087890625
0.0715,-1.6265869140625,5.5804443359375,-2.9478759765625
0.072,-0.5855712890625,5.6605224609375,-4.1890869140625
0.0725,0.2952880859375,5.9007568359375,-5.1900634765625
0.073,1.0159912109375,5.7005615234375,-5.8306884765625
0.0735,2.2572021484375,4.7396240234375,-6.2711181640625
0.074,3.4183349609375,3.6185302734375,-6.5513916015625
0.0745,4.4993896484375,2.4173583984375,-6.6715087890625
0.075,5.1800537109375,1.3763427734375,-6.5914306640625
0.0755,5.5404052734375,0.6156005859375,-6.5513916015625
0.076,5.3802490234375,-0.3453369140625,-5.7906494140625
0.0765,5.0999755859375,-1.4263916015625,-4.7496337890625
0.077,4.9798583984375,-2.6275634765625,-3.6685791015625
0.0775,4.7796630859375,-3.8687744140625,-2.4674072265625
0.078,4.6195068359375,-4.8297119140625,-1.5064697265625
0.0785,4.2191162109375,-5.4302978515625,-0.7056884765625
0.079,3.2581787109375,-5.6304931640625,0.3753662109375
0.0795,2.0970458984375,-5.8306884765625,1.7366943359375
0.08,0.8958740234375,-6.1109619140625,3.1781005859375
0.0805,0.0150146484375,-6.2711181640625,4.2191162109375
0.081,-0.7056884765625,-6.5513916015625,5.1400146484375
0.0815,-1.6265869140625,-6.0308837890625,5.7406005859375
0.082,-2.8277587890625,-4.9898681640625,5.9808349609375
0.0825,-3.9488525390625,-3.9488525390625,6.3411865234375
0.083,-4.8297119140625,-2.7877197265625,6.3812255859375
0.0835,-5.4302978515625,-1.9068603515625,6.4212646484375
0.084,-5.6304931640625,-1.1461181640625,6.1009521484375
0.0845,-5.4302978515625,-0.3052978515625,5.3402099609375
0.085,-5.2301025390625,0.8157958984375,4.4193115234375
0.0855,-5.1500244140625,2.0570068359375,3.2982177734375
0.086,-4.9498291015625,3.1380615234375,2.2572021484375
0.0865,-4.8697509765625,4.1390380859375,1.3763427734375
0.087,-4.3092041015625,4.5394287109375,0.5355224609375
0.0875,-3.3482666015625,4.7796630859375,-0.6256103515625
0.088,-2.3873291015625,5.0999755859375,-1.9068603515625
0.0885,-1.2662353515625,5.2601318359375,-3.1881103515625
0.089,-0.5054931640625,5.5404052734375,-4.1890869140625
0.0895,0.1751708984375,5.5804443359375,-5.1500244140625
0.09,1.2161865234375,5.1400146484375,-5.5103759765625
0.0905,2.3773193359375,4.1790771484375,-5.9107666015625
0.091,3.5384521484375,3.1781005859375,-6.2711181640625
0.0915,4.3392333984375,2.0970458984375,-6.3111572265625
0.092,4.9398193359375,1.3363037109375,-6.4312744140625
0.0925,5.0198974609375,0.6156005859375,-6.0709228515625
0.093,4.8597412109375,-0.4654541015625,-5.2301025390625
0.0935,4.8197021484375,-1.4664306640625,-4.3892822265625
0.094,4.7396240234375,-2.7076416015625,-3.3082275390625
0.0945,4.6195068359375,-3.7486572265625,-2.3873291015625
0.095,4.4993896484375,-4.6295166015625,-1.5865478515625
0.0955,3.8587646484375,-4.9898681640625,-0.7056884765625
0.096,2.8978271484375,-5.2701416015625,0.5755615234375
0.0965,1.9368896484375,-5.7506103515625,1.8568115234375
0.097,0.9359130859375,-5.9107666015625,3.0179443359375
0.0975,0.3753662109375,-6.3511962890625,3.9788818359375
0.098,-0.6256103515625,-6.2310791015625,4.8197021484375
0.0985,-1.6265869140625,-5.5103759765625,5.2601318359375
0.099,-2.8277587890625,-4.6295166015625,5.7406005859375
0.0995,-3.8687744140625,-3.5885009765625,5.9808349609375
0.1,-4.6295166015625,-2.6676025390625,6.1009521484375
0.1005,-5.1500244140625,-1.9468994140625,6.1810302734375
0.101,-5.1500244140625,-1.1861572265625,5.7005615234375
0.1015,-5.0299072265625,-0.3052978515625,4.8597412109375
0.102,-5.0699462890625,0.9359130859375,4.0189208984375
0.1025,-4.9898681640625,2.0570068359375,3.0579833984375
0.103,-4.9097900390625,3.1380615234375,2.1771240234375
0.1035,-4.6695556640625,3.8587646484375,1.3763427734375
0.104,-3.9088134765625,4.1790771484375,0.4554443359375
0.1045,-3.0679931640625,4.5794677734375,-0.8258056640625
0.105,-2.1070556640625,4.9398193359375,-2.1470947265625
0.1055,-1.3062744140625,5.3802490234375,-3.1480712890625
0.106,-0.6256103515625,5.7005615234375,-4.2691650390625
0.1065,0.3353271484375,5.4202880859375,-4.9097900390625
0.107,1.4564208984375,4.6195068359375,-5.3502197265625
0.1075,2.6175537109375,3.7786865234375,-5.8306884765625
0.108,3.6185302734375,2.7376708984375,-6.0709228515625
0.1085,4.3792724609375,1.9368896484375,-6.2711181640625
0.109,4.7396240234375,1.2161865234375,-6.1510009765625
0.1095,4.7396240234375,0.3353271484375,-5.5904541015625
0.11,4.6595458984375,-0.7056884765625,-4.7896728515625
0.1105,4.6995849609375,-1.9468994140625,-3.8687744140625
0.111,4.6195068359375,-3.0679931640625,-2.9078369140625
0.1115,4.6195068359375,-4.0689697265625,-2.1070556640625
0.112,4.1390380859375,-4.6295166015625,-1.2662353515625
0.1125,3.3382568359375,-4.9898681640625,-0.1851806640625
0.113,2.4573974609375,-5.5103759765625,1.1761474609375
0.1135,1.2962646484375,-5.8306884765625,2.5374755859375
0.114,0.6556396484375,-6.1109619140625,3.5384521484375
0.1145,0.0150146484375,-6.3111572265625,4.4993896484375
0.115,-1.1461181640625,-5.8306884765625,4.9798583984375
0.1155,-2.3072509765625,-4.9498291015625,5.5003662109375
0.116,-3.4683837890625,-3.9888916015625,5.8607177734375
0.1165,-4.3492431640625,-2.9478759765625,6.0208740234375
0.117,-4.9898681640625,-2.2271728515625,6.2210693359375
0.1175,-5.1500244140625,-1.4263916015625,5.8206787109375
0.118,-5.0299072265625,-0.5855712890625,5.0999755859375
0.1185,-5.0299072265625,0.6156005859375,4.2991943359375
0.119,-4.9898681640625,1.8568115234375,3.2581787109375
0.1195,-4.9097900390625,2.8978271484375,2.3372802734375
0.12,-4.8297119140625,3.8187255859375,1.5364990234375
0.1205,-4.1490478515625,4.0989990234375,0.5755615234375
0.121,-3.1881103515625,4.4593505859375,-0.6256103515625
0.1215,-2.2271728515625,4.9798583984375,-2.0670166015625
0.122,-1.3463134765625,5.2601318359375,-3.1480712890625
0.1225,-0.6656494140625,5.6204833984375,-4.1490478515625
0.123,0.2152099609375,5.5003662109375,-4.9498291015625
0.1235,1.2962646484375,4.8197021484375,-5.3902587890625
0.124,2.5374755859375,3.8587646484375,-5.8707275390625
0.1245,3.6185302734375,2.8177490234375,-6.1109619140625
0.125,4.4193115234375,1.8968505859375,-6.2711181640625
0.1255,4.8597412109375,1.1361083984375,-6.2711181640625
0.126,4.8197021484375,0.3353271484375,-5.7105712890625
0.1265,4.6995849609375,-0.7857666015625,-4.8297119140625
0.127,4.7396240234375,-1.9468994140625,-3.9488525390625
0.1275,4.6195068359375,-3.1480712890625,-2.9078369140625
0.128,4.5394287109375,-4.1090087890625,-2.0269775390625
0.1285,4.2991943359375,-4.7896728515625,-1.2261962890625
0.129,3.4583740234375,-5.1099853515625,-0.2652587890625
0.1295,2.4173583984375,-5.3902587890625,1.2161865234375
0.13,1.4163818359375,-5.7906494140625,2.4974365234375
0.1305,0.5755615234375,-6.0709228515625,3.5784912109375
0.131,-0.1851806640625,-6.3912353515625,4.6195068359375
0.1315,-1.1461181640625,-5.9908447265625,5.1400146484375
0.132,-2.3072509765625,-5.0299072265625,5.5804443359375
0.1325,-3.5084228515625,-4.0689697265625,6.0208740234375
0.133,-4.4693603515625,-2.9478759765625,6.1409912109375
0.1335,-5.1099853515625,-2.1070556640625,6.2611083984375
0.134,-5.3502197265625,-1.3863525390625,6.0208740234375
0.1345,-5.1900634765625,-0.5054931640625,5.2601318359375
0.135,-5.1099853515625,0.6156005859375,4.3392333984375
0.1355,-5.0699462890625,1.9368896484375,3.3382568359375
0.136,-4.9498291015625,3.0179443359375,2.2972412109375
0.1365,-4.9097900390625,3.8988037109375,1.5364990234375
0.137,-4.3092041015625,4.3392333984375,0.6156005859375
0.1375,-3.4283447265625,4.4993896484375,-0.5855712890625
0.138,-2.3472900390625,5.0599365234375,-1.9468994140625
0.1385,-1.2662353515625,5.3001708984375,-3.1881103515625
0.139,-0.5855712890625,5.6204833984375,-4.2691650390625
0.1395,0.2952880859375,5.7406005859375,-5.1099853515625
0.14,1.2962646484375,5.0599365234375,-5.6304931640625
0.1405,2.5775146484375,3.9788818359375,-6.0308837890625
0.141,3.7386474609375,2.8978271484375,-6.3511962890625
0.1415,4.5394287109375,1.8568115234375,-6.3912353515625
0.142,5.0999755859375,1.0960693359375,-6.4312744140625
0.1425,5.1400146484375,0.2552490234375,-5.9508056640625
0.143,4.9398193359375,-0.8258056640625,-5.0299072265625
0.1435,4.8597412109375,-2.0269775390625,-4.0289306640625
0.144,4.7796630859375,-3.2681884765625,-2.9078369140625
0.1445,4.5394287109375,-4.4293212890625,-1.9468994140625
0.145,4.4593505859375,-5.1900634765625,-1.1060791015625
0.1455,3.5784912109375,-5.5504150390625,-0.2652587890625
0.146,2.4974365234375,-5.6304931640625,1.2562255859375
0.1465,1.3363037109375,-6.0308837890625,2.6976318359375
0.147,0.3753662109375,-6.1510009765625,3.8587646484375
0.1475,-0.4254150390625,-6.4713134765625,4.8997802734375
0.148,-1.2662353515625,-6.2310791015625,5.5804443359375
0.1485,-2.5074462890625,-5.2301025390625,5.9407958984375
0.149,-3.7886962890625,-4.1090087890625,6.3411865234375
0.1495,-4.8697509765625,-2.9078369140625,6.4613037109375
0.15,-5.5103759765625,-1.9068603515625,6.4613037109375
0.1505,-5.8306884765625,-1.1461181640625,6.3411865234375
0.151,-5.6304931640625,-0.2652587890625,5.5404052734375
0.1515,-5.4302978515625,1.0159912109375,4.4593505859375
0.152,-5.3101806640625,2.3372802734375,3.2581787109375
0.1525,-5.1500244140625,3.4583740234375,2.0570068359375
0.153,-4.9498291015625,4.4593505859375,1.1361083984375
0.1535,-4.4293212890625,4.8597412109375,0.1351318359375
0.154,-3.3883056640625,5.1400146484375,-0.9459228515625
0.1545,-2.0670166015625,5.4202880859375,-2.3873291015625
0.155,-0.9058837890625,5.6605224609375,-3.8687744140625
0.1555,0.0150146484375,5.8206787109375,-4.8697509765625
0.156,0.7357177734375,5.9808349609375,-5.7506103515625
0.1565,1.7767333984375,5.2601318359375,-6.2711181640625
0.157,3.1781005859375,3.9788818359375,-6.5513916015625
0.1575,4.3392333984375,2.7376708984375,-6.8316650390625
0.158,5.1800537109375,1.5364990234375,-6.7916259765625
0.1585,5.7005615234375,0.6156005859375,-6.7115478515625
0.159,5.7406005859375,-0.3052978515625,-6.2711181640625
0.1595,5.4202880859375,-1.3062744140625,-5.1500244140625
0.16,5.1400146484375,-2.5875244140625,-3.9088134765625
0.1605,4.9798583984375,-4.0289306640625,-2.7076416015625
0.161,4.6995849609375,-5.0299072265625,-1.5064697265625
0.1615,4.4993896484375,-5.8306884765625,-0.7457275390625
0.162,3.6185302734375,-6.0308837890625,0.4154052734375
0.1625,2.2972412109375,-6.1510009765625,1.6566162109375
0.163,0.9759521484375,-6.3912353515625,3.2581787109375
0.1635,-0.2652587890625,-6.4312744140625,4.4993896484375
0.164,-0.9859619140625,-6.5914306640625,5.4603271484375
0.1645,-1.7467041015625,-6.4312744140625,6.1409912109375
0.165,-2.9078369140625,-5.4302978515625,6.4613037109375
0.1655,-4.2291259765625,-4.0689697265625,6.7415771484375
0.166,-5.3101806640625,-2.7877197265625,6.9017333984375
0.1665,-5.9508056640625,-1.6666259765625,6.7015380859375
0.167,-6.3511962890625,-0.8658447265625,6.5814208984375
0.1675,-6.1109619140625,0.1351318359375,5.8206787109375
0.168,-5.7506103515625,1.2562255859375,4.6195068359375
0.1685,-5.4302978515625,2.4974365234375,3.2581787109375
0.169,-5.2701416015625,3.8187255859375,2.0570068359375
0.1695,-4.8697509765625,4.8197021484375,0.8958740234375
0.17,-4.5894775390625,5.4202880859375,0.1751708984375
0.1705,-3.5484619140625,5.4603271484375,-0.9859619140625
0.171,-2.1871337890625,5.6204833984375,-2.3873291015625
0.1715,-0.9058837890625,5.8206787109375,-3.9088134765625
0.172,0.2152099609375,5.9007568359375,-5.0299072265625
0.1725,0.8958740234375,6.1009521484375,-5.9508056640625
0.173,1.7767333984375,5.6204833984375,-6.4713134765625
0.1735,3.0579833984375,4.3392333984375,-6.7515869140625
0.174,4.3392333984375,3.0579833984375,-7.0318603515625
0.1745,5.3001708984375,1.7767333984375,-7.0718994140625
0.175,5.8607177734375,0.6956787109375,-6.8717041015625
0.1755,6.0609130859375,-0.1851806640625,-6.6314697265625
0.176,5.7406005859375,-1.1461181640625,-5.6304931640625
0.1765,5.4202880859375,-2.3873291015625,-4.3892822265625
0.177,5.1400146484375,-3.7886962890625,-3.0279541015625
0.1775,4.8597412109375,-4.8697509765625,-1.7867431640625
0.178,4.6195068359375,-5.7506103515625,-0.8258056640625
