wavelength,x,y,z
0.0,-0.240234375,5.8857421875,-4.7646484375
0.0005,0.48046875,6.1259765625,-5.6455078125
0.001,1.3212890625,5.6455078125,-6.166015625
0.0015,2.6025390625,4.484375,-6.4462890625
0.002,3.9638671875,3.0830078125,-6.6064453125
0.0025,5.0048828125,1.76171875,-6.646484375
0.003,5.60546875,0.8408203125,-6.6865234375
0.0035,5.7255859375,0.16015625,-6.40625
0.004,5.4853515625,-0.80078125,-5.6455078125
0.0045,5.2451171875,-1.9619140625,-4.484375
0.005,5.044921875,-3.36328125,-3.1630859375
0.0055,4.8447265625,-4.5244140625,-2.0419921875
0.006,4.724609375,-5.3251953125,-1.28125
0.0065,4.1240234375,-5.7255859375,-0.5205078125
0.007,3.0830078125,-5.845703125,0.6806640625
0.0075,1.76171875,-6.0458984375,2.1220703125
0.008,0.6005859375,-6.2060546875,3.4833984375
0.0085,-0.2802734375,-6.5263671875,4.564453125
0.009,-0.8408203125,-6.6865234375,5.365234375
0.0095,-1.8017578125,-6.0859375,5.7255859375
0.01,-3.0830078125,-4.8447265625,6.0458984375
0.0105,-4.32421875,-3.4833984375,6.24609375
0.011,-5.205078125,-2.322265625,6.24609375
0.0115,-5.7255859375,-1.6416015625,6.3662109375
0.012,-5.765625,-0.9208984375,6.005859375
0.0125,-5.525390625,0.080078125,5.1650390625
0.013,-5.365234375,1.2412109375,4.083984375
0.0135,-5.205078125,2.5625,2.8828125
0.014,-5.125,3.6435546875,1.921875
0.0145,-5.0048828125,4.3642578125,1.2412109375
0.015,-4.3642578125,4.724609375,0.400390625
0.0155,-3.283203125,4.9248046875,-0.8408203125
0.016,-2.2021484375,5.2451171875,-2.2421875
0.0165,-1.1611328125,5.4453125,-3.5234375
0.017,-0.5205078125,5.8857421875,-4.5244140625
0.0175,0.2802734375,5.845703125,-5.3251953125
0.018,1.4013671875,5.125,-5.7255859375
0.0185,2.6826171875,3.9638671875,-6.0458984375
0.019,3.8837890625,2.6826171875,-6.24609375
0.0195,4.7646484375,1.6416015625,-6.3662109375
0.02,5.1650390625,1.041015625,-6.4462890625
0.0205,5.1650390625,0.2802734375,-6.005859375
0.021,5.0048828125,-0.80078125,-5.125
0.0215,4.9248046875,-2.001953125,-4.0439453125
0.022,4.8046875,-3.3232421875,-2.9228515625
0.0225,4.8046875,-4.3642578125,-2.08203125
0.023,4.5244140625,-5.0048828125,-1.361328125
0.0235,3.8037109375,-5.3251953125,-0.4404296875
0.024,2.72265625,-5.60546875,0.9208984375
0.0245,1.521484375,-5.8857421875,2.322265625
0.025,0.640625,-6.24609375,3.5234375
0.0255,0.0,-6.646484375,4.484375
0.026,-0.8408203125,-6.326171875,5.0849609375
0.0265,-2.001953125,-5.4052734375,5.4853515625
0.027,-3.283203125,-4.2041015625,5.765625
0.0275,-4.4443359375,-3.04296875,5.92578125
0.028,-5.125,-2.2421875,6.166015625
0.0285,-5.4052734375,-1.5615234375,6.0859375
0.029,-5.3251953125,-0.80078125,5.4853515625
0.0295,-5.1650390625,0.3603515625,4.6044921875
0.03,-5.125,1.6015625,3.5234375
0.0305,-5.125,2.802734375,2.5224609375
0.031,-5.0849609375,3.68359375,1.8017578125
0.0315,-4.64453125,4.2041015625,1.0810546875
0.032,-3.84375,4.484375,0.080078125
0.0325,-2.8427734375,4.8046875,-1.28125
0.033,-1.8017578125,5.125,-2.6025390625
0.0335,-1.0810546875,5.525390625,-3.7236328125
0.034,-0.400390625,5.8857421875,-4.64453125
0.0345,0.6005859375,5.4453125,-5.1650390625
0.035,1.841796875,4.4443359375,-5.60546875
0.0355,3.0830078125,3.2431640625,-5.8857421875
0.036,4.083984375,2.2021484375,-6.0859375
0.0365,4.7646484375,1.521484375,-6.2861328125
0.037,4.9248046875,0.880859375,-6.1259765625
0.0375,4.8046875,0.0,-5.4453125
0.038,4.8046875,-1.201171875,-4.5244140625
0.0385,4.7646484375,-2.482421875,-3.4833984375
0.039,4.724609375,-3.603515625,-2.5625
0.0395,4.6845703125,-4.4443359375,-1.8818359375
0.04,4.1240234375,-4.884765625,-1.12109375
0.0405,3.2431640625,-5.2451171875,0.1201171875
0.041,2.2421875,-5.6455078125,1.4013671875
0.0415,1.2412109375,-5.9658203125,2.6826171875
0.042,0.6005859375,-6.40625,3.84375
0.0425,-0.2001953125,-6.486328125,4.6044921875
0.043,-1.28125,-5.8056640625,5.0849609375
0.0435,-2.5224609375,-4.8447265625,5.4853515625
0.044,-3.8037109375,-3.603515625,5.765625
0.0445,-4.64453125,-2.642578125,6.005859375
0.045,-5.125,-2.0419921875,6.1259765625
0.0455,-5.205078125,-1.3212890625,5.7255859375
0.046,-5.125,-0.400390625,4.96484375
0.0465,-5.125,0.9208984375,4.0439453125
0.047,-5.125,2.2021484375,3.04296875
0.0475,-5.125,3.203125,2.2021484375
0.048,-4.9248046875,3.8837890625,1.521484375
0.0485,-4.244140625,4.244140625,0.6005859375
0.049,-3.283203125,4.6044921875,-0.6806640625
0.0495,-2.2822265625,4.96484375,-2.08203125
0.05,-1.4013671875,5.4453125,-3.283203125
0.0505,-0.80078125,5.8857421875,-4.3642578125
0.051,0.16015625,5.685546875,-5.0048828125
0.0515,1.4013671875,4.8046875,-5.4453125
0.052,2.6826171875,3.68359375,-5.8056640625
0.0525,3.84375,2.482421875,-6.0859375
0.053,4.6044921875,1.6416015625,-6.2861328125
0.0535,4.96484375,1.0009765625,-6.2861328125
0.054,4.9248046875,0.2001953125,-5.7255859375
0.0545,4.8046875,-1.0009765625,-4.7646484375
0.055,4.7646484375,-2.2822265625,-3.7236328125
0.0555,4.7646484375,-3.5634765625,-2.642578125
0.056,4.7646484375,-4.484375,-1.921875
0.0565,4.32421875,-5.0048828125,-1.1611328125
0.057,3.443359375,-5.28515625,0.0
0.0575,2.2822265625,-5.6455078125,1.28125
0.058,1.2412109375,-5.92578125,2.6826171875
0.0585,0.48046875,-6.2861328125,3.84375
0.059,-0.2802734375,-6.5263671875,4.724609375
0.0595,-1.2412109375,-6.0458984375,5.2451171875
0.06,-2.5224609375,-4.96484375,5.60546875
0.0605,-3.8037109375,-3.7236328125,5.8857421875
0.061,-4.7646484375,-2.6025390625,6.0458984375
0.0615,-5.365234375,-1.8818359375,6.24609375
0.062,-5.4453125,-1.201171875,5.8857421875
0.0625,-5.28515625,-0.3203125,5.125
0.063,-5.1650390625,0.9609375,4.1240234375
0.0635,-5.125,2.2822265625,2.9228515625
0.064,-5.0849609375,3.4033203125,2.0419921875
0.0645,-4.96484375,4.1240234375,1.28125
0.065,-4.3642578125,4.484375,0.48046875
0.0655,-3.283203125,4.724609375,-0.80078125
0.066,-2.2021484375,5.0849609375,-2.162109375
0.0665,-1.2412109375,5.4453125,-3.4833984375
0.067,-0.560546875,5.8857421875,-4.5244140625
0.0675,0.2802734375,5.8056640625,-5.28515625
0.068,1.4013671875,5.0048828125,-5.7255859375
0.0685,2.802734375,3.8037109375,-6.0859375
0.069,4.0439453125,2.482421875,-6.24609375
0.0695,4.8447265625,1.4814453125,-6.40625
0.07,5.2451171875,0.8408203125,-6.40625
0.0705,5.205078125,0.1201171875,-5.92578125
0.071,5.0048828125,-1.0810546875,-4.884765625
0.0715,4.9248046875,-2.3623046875,-3.8037109375
0.072,4.8046875,-3.7236328125,-2.6025390625
0.0725,4.7646484375,-4.724609375,-1.76171875
0.073,4.4443359375,-5.3251953125,-1.0009765625
0.0735,3.5634765625,-5.60546875,0.0
0.074,2.40234375,-5.765625,1.3212890625
0.0745,1.201171875,-6.0458984375,2.8427734375
0.075,0.2802734375,-6.3662109375,3.9638671875
0.0755,-0.400390625,-6.6865234375,4.96484375
0.076,-1.28125,-6.2861328125,5.525390625
0.0765,-2.5625,-5.1650390625,5.845703125
0.077,-3.8837890625,-3.8837890625,6.1259765625
0.0775,-5.0048828125,-2.6025390625,6.24609375
0.078,-5.6455078125,-1.76171875,6.3662109375
0.0785,-5.8056640625,-1.041015625,6.1259765625
0.079,-5.6455078125,-0.2001953125,5.4052734375
0.0795,-5.4453125,1.12109375,4.2841796875
0.08,-5.3251953125,2.482421875,3.04296875
0.0805,-5.205078125,3.6435546875,1.9619140625
0.081,-5.125,4.5244140625,1.201171875
0.0815,-4.5244140625,4.884765625,0.3603515625
0.082,-3.4833984375,5.0849609375,-0.880859375
0.0825,-2.2021484375,5.4052734375,-2.322265625
0.083,-1.0009765625,5.685546875,-3.8037109375
0.0835,-0.2802734375,5.9658203125,-4.8447265625
0.084,0.560546875,6.0859375,-5.7255859375
0.0845,1.6416015625,5.3251953125,-6.2060546875
0.085,3.0830078125,3.9638671875,-6.5263671875
0.0855,4.4443359375,2.5224609375,-6.6865234375
0.086,5.365234375,1.28125,-6.7265625
0.0865,5.8056640625,0.5205078125,-6.7265625
0.087,5.7255859375,-0.3603515625,-6.24609375
0.0875,5.4853515625,-1.44140625,-5.125
0.088,5.28515625,-2.8828125,-3.8037109375
0.0885,5.0849609375,-4.2841796875,-2.40234375
0.089,4.884765625,-5.3251953125,-1.4013671875
0.0895,4.5244140625,-6.0458984375,-0.640625
0.09,3.6435546875,-6.1259765625,0.4404296875
0.0905,2.2421875,-6.2861328125,1.8818359375
0.091,0.80078125,-6.40625,3.4833984375
0.0915,-0.3603515625,-6.56640625,4.724609375
0.092,-1.0009765625,-6.806640625,5.6455078125
0.0925,-1.8017578125,-6.5263671875,6.24609375
0.093,-3.0830078125,-5.3251953125,6.5263671875
0.0935,-4.5244140625,-3.84375,6.7265625
0.094,-5.6455078125,-2.322265625,6.7265625
0.0945,-6.2861328125,-1.28125,6.6865234375
0.095,-6.4462890625,-0.5205078125,6.4462890625
0.0955,-6.2060546875,0.4404296875,5.6455078125
0.096,-5.8056640625,1.681640625,4.32421875
0.0965,-5.5654296875,3.04296875,2.8427734375
0.097,-5.365234375,4.32421875,1.5615234375
0.0975,-5.125,5.0849609375,0.6806640625
0.098,-4.5244140625,5.60546875,-0.2001953125
0.0985,-3.4033203125,5.685546875,-1.28125
0.099,-1.9619140625,5.765625,-2.802734375
0.0995,-0.560546875,5.8857421875,-4.32421875
0.1,0.400390625,6.0859375,-5.4453125
0.1005,1.0009765625,6.24609375,-6.24609375
0.101,1.921875,5.60546875,-6.7265625
0.1015,3.3232421875,4.1640625,-6.9267578125
0.102,4.64453125,2.6826171875,-7.046875
0.1025,5.685546875,1.2412109375,-6.966796875
0.103,6.166015625,0.3203125,-6.8466796875
0.1035,6.166015625,-0.5205078125,-6.486328125
0.104,5.8056640625,-1.4814453125,-5.4853515625
0.1045,5.4853515625,-2.8828125,-4.1240234375
0.105,5.205078125,-4.2841796875,-2.642578125
0.1055,4.96484375,-5.4453125,-1.44140625
0.106,4.6845703125,-6.1259765625,-0.640625
0.1065,3.9638671875,-6.40625,0.2802734375
0.107,2.6826171875,-6.4462890625,1.521484375
0.1075,1.1611328125,-6.5263671875,3.123046875
0.108,-0.2802734375,-6.6064453125,4.5244140625
0.1085,-1.0009765625,-6.806640625,5.525390625
0.109,-1.6416015625,-6.806640625,6.2861328125
0.1095,-2.72265625,-5.92578125,6.6064453125
0.11,-4.1240234375,-4.4443359375,6.806640625
0.1105,-5.4052734375,-2.8828125,6.88671875
0.111,-6.24609375,-1.6416015625,6.7666015625
0.1115,-6.56640625,-0.8408203125,6.6865234375
0.112,-6.4462890625,0.0400390625,6.0859375
0.1125,-6.0859375,1.0810546875,4.96484375
0.113,-5.765625,2.482421875,3.5234375
0.1135,-5.525390625,3.84375,2.08203125
0.114,-5.28515625,4.9248046875,1.0810546875
0.1145,-4.9248046875,5.4853515625,0.3203125
0.115,-4.00390625,5.685546875,-0.6806640625
0.1155,-2.6025390625,5.7255859375,-2.08203125
0.116,-1.201171875,5.8857421875,-3.7236328125
0.1165,0.0400390625,6.0458984375,-5.0048828125
0.117,0.720703125,6.24609375,-5.92578125
0.1175,1.4814453125,6.0458984375,-6.56640625
0.118,2.72265625,4.8447265625,-6.88671875
0.1185,4.1640625,3.3232421875,-7.0869140625
0.119,5.365234375,1.841796875,-7.0869140625
0.1195,6.0859375,0.640625,-6.966796875
0.12,6.24609375,-0.16015625,-6.7666015625
0.1205,6.0458984375,-1.041015625,-6.0458984375
0.121,5.6455078125,-2.322265625,-4.6845703125
0.1215,5.365234375,-3.84375,-3.203125
0.122,5.0849609375,-5.0849609375,-1.841796875
0.1225,4.8447265625,-5.9658203125,-0.9208984375
0.123,4.32421875,-6.40625,0.0
0.1235,3.203125,-6.486328125,1.0810546875
0.124,1.6416015625,-6.6064453125,2.642578125
0.1245,0.240234375,-6.6865234375,4.2041015625
0.125,-0.8408203125,-6.806640625,5.3251953125
0.1255,-1.44140625,-6.966796875,6.2060546875
0.126,-2.3623046875,-6.3662109375,6.646484375
0.1265,-3.7236328125,-4.96484375,6.8466796875
0.127,-5.0849609375,-3.36328125,6.966796875
0.1275,-6.1259765625,-1.9619140625,6.88671875
0.128,-6.646484375,-0.9609375,6.7666015625
0.1285,-6.6064453125,-0.240234375,6.3662109375
0.129,-6.2861328125,0.80078125,5.4052734375
0.1295,-5.92578125,2.162109375,3.923828125
0.13,-5.6455078125,3.6435546875,2.5224609375
0.1305,-5.365234375,4.8046875,1.28125
0.131,-5.0849609375,5.525390625,0.48046875
0.1315,-4.32421875,5.7255859375,-0.5205078125
0.132,-3.0830078125,5.765625,-1.7216796875
0.1325,-1.5615234375,5.8857421875,-3.283203125
0.133,-0.240234375,6.005859375,-4.7646484375
0.1335,0.640625,6.166015625,-5.7255859375
0.134,1.28125,6.166015625,-6.4462890625
0.1345,2.2822265625,5.28515625,-6.7666015625
0.135,3.763671875,3.763671875,-6.966796875
0.1355,5.0048828125,2.2822265625,-7.046875
0.136,5.845703125,0.9208984375,-6.9267578125
0.1365,6.2060546875,0.1201171875,-6.8466796875
0.137,6.0458984375,-0.720703125,-6.2861328125
0.1375,5.685546875,-1.8017578125,-5.1650390625
0.138,5.365234375,-3.0830078125,-3.8037109375
0.1385,5.0849609375,-4.484375,-2.322265625
0.139,4.8447265625,-5.4853515625,-1.28125
0.1395,4.5244140625,-6.1259765625,-0.560546875
0.14,3.68359375,-6.2861328125,0.4404296875
0.1405,2.3623046875,-6.326171875,1.76171875
0.141,0.9208984375,-6.4462890625,3.2431640625
0.1415,-0.3203125,-6.56640625,4.564453125
0.142,-0.9609375,-6.7666015625,5.4853515625
0.1425,-1.6416015625,-6.6064453125,6.0859375
0.143,-2.72265625,-5.6455078125,6.3662109375
0.1435,-4.083984375,-4.2041015625,6.56640625
0.144,-5.28515625,-2.7626953125,6.646484375
0.1445,-6.005859375,-1.681640625,6.56640625
0.145,-6.2861328125,-1.0009765625,6.486328125
0.1455,-6.1259765625,-0.2802734375,5.8056640625
0.146,-5.765625,0.9609375,4.7646484375
0.1465,-5.525390625,2.2822265625,3.4833984375
0.147,-5.4052734375,3.6435546875,2.2021484375
0.1475,-5.205078125,4.6044921875,1.28125
0.148,-4.8447265625,5.0849609375,0.560546875
0.1485,-3.923828125,5.28515625,-0.5205078125
0.149,-2.642578125,5.4453125,-1.8818359375
0.1495,-1.28125,5.685546875,-3.4033203125
0.15,-0.3603515625,5.8857421875,-4.564453125
0.1505,0.3603515625,6.2060546875,-5.525390625
0.151,1.201171875,5.845703125,-6.0859375
0.1515,2.40234375,4.6845703125,-6.40625
0.152,3.8037109375,3.3232421875,-6.6064453125
0.1525,4.9248046875,1.921875,-6.6865234375
0.153,5.60546875,0.9609375,-6.7265625
0.1535,5.7255859375,0.240234375,-6.56640625
0.154,5.5654296875,-0.640625,-5.765625
0.1545,5.28515625,-1.8818359375,-4.64453125
0.155,5.0849609375,-3.283203125,-3.283203125
0.1555,4.96484375,-4.484375,-2.1220703125
0.156,4.8046875,-5.365234375,-1.28125
0.1565,4.2041015625,-5.765625,-0.5205078125
0.157,3.1630859375,-5.92578125,0.640625
0.1575,1.8818359375,-6.1259765625,2.1220703125
0.158,0.6005859375,-6.2861328125,3.5634765625
0.1585,-0.3203125,-6.5263671875,4.64453125
0.159,-0.9208984375,-6.6865234375,5.4453125
0.1595,-1.841796875,-6.0859375,5.8857421875
0.16,-3.1630859375,-4.8447265625,6.166015625
0.1605,-4.4443359375,-3.4833984375,6.326171875
0.161,-5.365234375,-2.2822265625,6.3662109375
0.1615,-5.92578125,-1.4814453125,6.40625
0.162,-5.845703125,-0.80078125,6.0458984375
0.1625,-5.6455078125,0.2001953125,5.1650390625
0.163,-5.4453125,1.4013671875,4.00390625
0.1635,-5.28515625,2.7626953125,2.7626953125
0.164,-5.125,3.84375,1.76171875
0.1645,-4.96484375,4.5244140625,1.0810546875
0.165,-4.2841796875,4.8447265625,0.240234375
0.1655,-3.203125,5.044921875,-1.0009765625
0.166,-2.001953125,5.28515625,-2.40234375
0.1665,-1.0009765625,5.5654296875,-3.7236328125
0.167,-0.2802734375,5.8857421875,-4.7646484375
0.1675,0.48046875,5.8857421875,-5.4853515625
0.168,1.5615234375,5.0849609375,-5.845703125
0.1685,2.8427734375,3.84375,-6.166015625
0.169,4.0439453125,2.5224609375,-6.3662109375
0.1695,4.884765625,1.4814453125,-6.4462890625
0.17,5.28515625,0.9208984375,-6.4462890625
0.1705,5.2451171875,0.16015625,-6.005859375
0.171,5.0849609375,-0.9208984375,-5.125
0.1715,4.9248046875,-2.1220703125,-4.00390625
0.172,4.8046875,-3.443359375,-2.8427734375
0.1725,4.7646484375,-4.4443359375,-1.9619140625
0.173,4.5244140625,-5.0849609375,-1.28125
0.1735,3.8037109375,-5.365234375,-0.400390625
0.174,2.6826171875,-5.60546875,0.9208984375
0.1745,1.521484375,-5.845703125,2.2822265625
0.175,0.6005859375,-6.166015625,3.5234375
0.1755,0.0,-6.56640625,4.5244140625
0.176,-0.9208984375,-6.3662109375,5.1650390625
0.1765,-2.001953125,-5.525390625,5.525390625
0.177,-3.283203125,-4.3642578125,5.845703125
0.1775,-4.484375,-3.1630859375,6.005859375
0.178,-5.125,-2.2421875,6.166015625
0.1785,-5.4453125,-1.6015625,6.1259765625
0.179,-5.365234375,-0.9208984375,5.60546875
0.1795,-5.205078125,0.240234375,4.724609375
0.18,-5.1650390625,1.4814453125,3.6435546875
0.1805,-5.125,2.6826171875,2.6025390625
0.181,-5.0849609375,3.6435546875,1.921875
0.1815,-4.724609375,4.1240234375,1.201171875
0.182,-3.9638671875,4.484375,0.240234375
0.1825,-2.962890625,4.8046875,-1.12109375
0.183,-1.8818359375,5.125,-2.5224609375
0.1835,-1.12109375,5.525390625,-3.6435546875
0.184,-0.48046875,5.8857421875,-4.6044921875
0.1845,0.48046875,5.4853515625,-5.1650390625
0.185,1.7216796875,4.5244140625,-5.525390625
0.1855,2.962890625,3.3232421875,-5.92578125
0.186,4.0439453125,2.2421875,-6.1259765625
0.1865,4.724609375,1.5615234375,-6.3662109375
0.187,4.9248046875,0.9609375,-6.166015625
0.1875,4.8046875,0.1201171875,-5.525390625
0.188,4.7646484375,-1.041015625,-4.6845703125
0.1885,4.724609375,-2.3623046875,-3.603515625
0.189,4.724609375,-3.4833984375,-2.6826171875
0.1895,4.6845703125,-4.3642578125,-1.9619140625
0.19,4.2041015625,-4.8046875,-1.2412109375
0.1905,3.36328125,-5.125,-0.16015625
0.191,2.3623046875,-5.4853515625,1.2412109375
0.1915,1.28125,-5.845703125,2.5625
0.192,0.640625,-6.2861328125,3.68359375
0.1925,0.0,-6.486328125,4.5244140625
0.193,-1.1611328125,-5.92578125,5.044921875
0.1935,-2.4423828125,-4.96484375,5.4052734375
0.194,-3.603515625,-3.763671875,5.7255859375
0.1945,-4.564453125,-2.7626953125,5.9658203125
0.195,-5.125,-2.08203125,6.1259765625
0.1955,-5.1650390625,-1.4013671875,5.8056640625
0.196,-5.125,-0.5205078125,5.0849609375
0.1965,-5.125,0.7607421875,4.1240234375
0.197,-5.125,2.0419921875,3.123046875
0.1975,-5.125,3.123046875,2.2822265625
0.198,-4.96484375,3.84375,1.5615234375
0.1985,-4.3642578125,4.2041015625,0.720703125
0.199,-3.4033203125,4.6044921875,-0.5205078125
0.1995,-2.322265625,4.96484375,-1.921875
0.2,-1.4814453125,5.4052734375,-3.1630859375
0.2005,-0.80078125,5.765625,-4.2041015625
0.201,0.080078125,5.685546875,-4.9248046875
0.2015,1.201171875,4.8447265625,-5.4052734375
0.202,2.5224609375,3.763671875,-5.765625
0.2025,3.763671875,2.5625,-6.0458984375
0.203,4.564453125,1.6416015625,-6.24609375
0.2035,4.9248046875,1.0810546875,-6.24609375
0.204,4.884765625,0.2802734375,-5.7255859375
0.2045,4.8046875,-0.8408203125,-4.884765625
0.205,4.8046875,-2.1220703125,-3.84375
0.2055,4.7646484375,-3.36328125,-2.7626953125
0.206,4.7646484375,-4.32421875,-2.001953125
0.2065,4.3642578125,-4.8447265625,-1.28125
0.207,3.5634765625,-5.125,-0.3203125
0.2075,2.482421875,-5.4853515625,1.0810546875
0.208,1.4013671875,-5.8056640625,2.4423828125
0.2085,0.640625,-6.24609375,3.603515625
0.209,0.0,-6.5263671875,4.5244140625
0.2095,-1.0009765625,-6.1259765625,5.0849609375
0.21,-2.2822265625,-5.0849609375,5.4453125
0.2105,-3.5634765625,-3.84375,5.765625
0.211,-4.6044921875,-2.72265625,6.005859375
0.2115,-5.205078125,-2.001953125,6.1259765625
0.212,-5.365234375,-1.3212890625,5.8857421875
0.2125,-5.2451171875,-0.5205078125,5.2451171875
0.213,-5.1650390625,0.720703125,4.2841796875
0.2135,-5.125,2.0419921875,3.1630859375
0.214,-5.125,3.1630859375,2.2421875
0.2145,-5.0048828125,3.9638671875,1.521484375
0.215,-4.4443359375,4.3642578125,0.7607421875
0.2155,-3.5234375,4.6044921875,-0.4404296875
0.216,-2.4423828125,5.044921875,-1.8017578125
0.2165,-1.4013671875,5.3251953125,-3.203125
0.217,-0.720703125,5.7255859375,-4.244140625
0.2175,0.0400390625,5.8056640625,-5.0849609375
0.218,1.12109375,5.1650390625,-5.525390625
0.2185,2.482421875,4.00390625,-5.92578125
0.219,3.763671875,2.6826171875,-6.166015625
0.2195,4.6845703125,1.6416015625,-6.2861328125
0.22,5.125,1.0009765625,-6.40625
0.2205,5.125,0.2802734375,-5.9658203125
0.221,4.96484375,-0.8408203125,-5.0849609375
0.2215,4.9248046875,-2.08203125,-4.00390625
0.222,4.8046875,-3.4833984375,-2.8427734375
0.2225,4.7646484375,-4.484375,-1.9619140625
0.223,4.5244140625,-5.125,-1.2412109375
0.2235,3.763671875,-5.4052734375,-0.3203125
0.224,2.6025390625,-5.6455078125,1.0810546875
0.2245,1.361328125,-5.9658203125,2.5224609375
0.225,0.4404296875,-6.2861328125,3.8037109375
0.2255,-0.3203125,-6.6865234375,4.7646484375
0.226,-1.12109375,-6.3662109375,5.4052734375
0.2265,-2.322265625,-5.3251953125,5.7255859375
0.227,-3.68359375,-4.0439453125,6.0859375
0.2275,-4.8447265625,-2.72265625,6.2060546875
0.228,-5.525390625,-1.8017578125,6.326171875
0.2285,-5.765625,-1.1611328125,6.1259765625
