wavelength,x,y,z
0.0,-5.114990234375,3.853759765625,1.771728515625
0.0005,-4.354248046875,4.214111328125,0.810791015625
0.001,-3.513427734375,4.614501953125,-0.470458984375
0.0015,-2.592529296875,5.094970703125,-1.871826171875
0.002,-1.711669921875,5.495361328125,-2.992919921875
0.0025,-0.990966796875,5.855712890625,-4.073974609375
0.003,0.010009765625,5.655517578125,-4.754638671875
0.0035,1.131103515625,4.854736328125,-5.155029296875
0.004,2.452392578125,3.973876953125,-5.755615234375
0.0045,3.613525390625,2.932861328125,-6.115966796875
0.005,4.454345703125,1.971923828125,-6.316162109375
0.0055,4.854736328125,1.251220703125,-6.356201171875
0.006,4.854736328125,0.370361328125,-5.715576171875
0.0065,4.814697265625,-0.710693359375,-4.914794921875
0.007,4.974853515625,-1.951904296875,-4.073974609375
0.0075,4.974853515625,-3.153076171875,-3.153076171875
0.008,4.934814453125,-4.154052734375,-2.312255859375
0.0085,4.494384765625,-4.834716796875,-1.471435546875
0.009,3.653564453125,-5.114990234375,-0.470458984375
0.0095,2.732666015625,-5.635498046875,0.930908203125
0.01,1.771728515625,-5.955810546875,2.252197265625
0.0105,0.970947265625,-6.316162109375,3.373291015625
0.011,0.290283203125,-6.556396484375,4.334228515625
0.0115,-0.870849609375,-6.115966796875,4.894775390625
0.012,-2.072021484375,-5.155029296875,5.375244140625
0.0125,-3.433349609375,-4.114013671875,5.895751953125
0.013,-4.434326171875,-3.113037109375,6.135986328125
0.0135,-5.155029296875,-2.272216796875,6.296142578125
0.014,-5.395263671875,-1.471435546875,6.055908203125
0.0145,-5.275146484375,-0.590576171875,5.255126953125
0.015,-5.275146484375,0.650634765625,4.414306640625
0.0155,-5.355224609375,1.931884765625,3.493408203125
0.016,-5.315185546875,3.052978515625,2.572509765625
0.0165,-5.155029296875,3.853759765625,1.771728515625
0.017,-4.514404296875,4.294189453125,0.850830078125
0.0175,-3.593505859375,4.534423828125,-0.350341796875
0.018,-2.632568359375,5.135009765625,-1.711669921875
0.0185,-1.671630859375,5.495361328125,-2.952880859375
0.019,-0.910888671875,5.775634765625,-4.073974609375
0.0195,-0.150146484375,5.815673828125,-4.834716796875
0.02,1.051025390625,5.094970703125,-5.275146484375
0.0205,2.332275390625,4.093994140625,-5.795654296875
0.021,3.613525390625,3.012939453125,-6.196044921875
0.0215,4.494384765625,1.971923828125,-6.356201171875
0.022,5.054931640625,1.251220703125,-6.476318359375
0.0225,5.094970703125,0.410400390625,-5.915771484375
0.023,4.894775390625,-0.670654296875,-5.074951171875
0.0235,5.054931640625,-1.951904296875,-4.154052734375
0.024,5.054931640625,-3.193115234375,-3.153076171875
0.0245,4.934814453125,-4.274169921875,-2.272216796875
0.025,4.694580078125,-5.034912109375,-1.471435546875
0.0255,3.813720703125,-5.315185546875,-0.510498046875
0.026,2.812744140625,-5.595458984375,0.890869140625
0.0265,1.771728515625,-6.115966796875,2.332275390625
0.027,0.890869140625,-6.356201171875,3.533447265625
0.0275,0.130126953125,-6.676513671875,4.534423828125
0.028,-0.870849609375,-6.316162109375,5.094970703125
0.0285,-2.112060546875,-5.315185546875,5.495361328125
0.029,-3.553466796875,-4.234130859375,6.095947265625
0.0295,-4.634521484375,-3.153076171875,6.376220703125
0.03,-5.395263671875,-2.152099609375,6.416259765625
0.0305,-5.715576171875,-1.351318359375,6.296142578125
0.031,-5.595458984375,-0.470458984375,5.495361328125
0.0315,-5.435302734375,0.810791015625,4.494384765625
0.032,-5.515380859375,2.172119140625,3.493408203125
0.0325,-5.435302734375,3.333251953125,2.452392578125
0.033,-5.235107421875,4.214111328125,1.571533203125
0.0335,-4.714599609375,4.694580078125,0.690673828125
0.034,-3.593505859375,4.854736328125,-0.510498046875
0.0345,-2.552490234375,5.295166015625,-1.951904296875
0.035,-1.431396484375,5.655517578125,-3.353271484375
0.0355,-0.630615234375,5.895751953125,-4.434326171875
0.036,0.170166015625,6.015869140625,-5.275146484375
0.0365,1.251220703125,5.295166015625,-5.715576171875
0.037,2.572509765625,4.134033203125,-6.075927734375
0.0375,3.933837890625,2.972900390625,-6.556396484375
0.038,4.894775390625,1.851806640625,-6.676513671875
0.0385,5.455322265625,0.970947265625,-6.676513671875
0.039,5.535400390625,0.130126953125,-6.236083984375
0.0395,5.255126953125,-0.990966796875,-5.195068359375
0.04,5.255126953125,-2.312255859375,-4.154052734375
0.0405,5.215087890625,-3.753662109375,-2.952880859375
0.041,5.054931640625,-4.794677734375,-1.991943359375
0.0415,4.814697265625,-5.635498046875,-1.191162109375
0.042,3.933837890625,-5.795654296875,-0.190185546875
0.0425,2.692626953125,-5.915771484375,1.211181640625
0.043,1.531494140625,-6.396240234375,2.772705078125
0.0435,0.490478515625,-6.596435546875,4.093994140625
0.044,-0.390380859375,-6.796630859375,5.054931640625
0.0445,-1.191162109375,-6.596435546875,5.695556640625
0.045,-2.432373046875,-5.515380859375,6.055908203125
0.0455,-3.953857421875,-4.234130859375,6.456298828125
0.046,-5.155029296875,-2.952880859375,6.776611328125
0.0465,-5.915771484375,-1.871826171875,6.736572265625
0.047,-6.276123046875,-1.031005859375,6.656494140625
0.0475,-6.115966796875,0.010009765625,5.815673828125
0.048,-5.795654296875,1.251220703125,4.534423828125
0.0485,-5.755615234375,2.612548828125,3.373291015625
0.049,-5.635498046875,3.893798828125,2.212158203125
0.0495,-5.395263671875,4.814697265625,1.211181640625
0.05,-4.834716796875,5.335205078125,0.370361328125
0.0505,-3.713623046875,5.455322265625,-0.830810546875
0.051,-2.352294921875,5.655517578125,-2.312255859375
0.0515,-1.111083984375,5.975830078125,-3.913818359375
0.052,-0.150146484375,6.095947265625,-4.994873046875
0.0525,0.610595703125,6.256103515625,-5.835693359375
0.053,1.571533203125,5.615478515625,-6.316162109375
0.0535,2.972900390625,4.254150390625,-6.516357421875
0.054,4.414306640625,2.972900390625,-6.956787109375
0.0545,5.415283203125,1.651611328125,-7.036865234375
0.055,5.935791015625,0.650634765625,-6.916748046875
0.0555,6.095947265625,-0.270263671875,-6.556396484375
0.056,5.775634765625,-1.311279296875,-5.515380859375
0.0565,5.495361328125,-2.632568359375,-4.194091796875
0.057,5.415283203125,-4.114013671875,-2.912841796875
0.0575,5.135009765625,-5.235107421875,-1.831787109375
0.058,4.854736328125,-5.955810546875,-0.910888671875
0.0585,4.134033203125,-6.276123046875,0.130126953125
0.059,2.812744140625,-6.316162109375,1.331298828125
0.0595,1.451416015625,-6.596435546875,2.932861328125
0.06,0.210205078125,-6.756591796875,4.414306640625
0.0605,-0.710693359375,-6.916748046875,5.375244140625
0.061,-1.431396484375,-6.836669921875,6.095947265625
0.0615,-2.552490234375,-5.915771484375,6.416259765625
0.062,-3.993896484375,-4.434326171875,6.696533203125
0.0625,-5.315185546875,-3.153076171875,7.016845703125
0.063,-6.156005859375,-1.911865234375,7.016845703125
0.0635,-6.596435546875,-0.990966796875,6.856689453125
0.064,-6.476318359375,0.010009765625,6.216064453125
0.0645,-6.115966796875,1.091064453125,4.974853515625
0.065,-5.915771484375,2.532470703125,3.653564453125
0.0655,-5.795654296875,3.853759765625,2.412353515625
0.066,-5.475341796875,4.894775390625,1.291259765625
0.0665,-5.074951171875,5.575439453125,0.450439453125
0.067,-4.033935546875,5.735595703125,-0.670654296875
0.0675,-2.632568359375,5.735595703125,-1.991943359375
0.068,-1.311279296875,6.095947265625,-3.673583984375
0.0685,-0.230224609375,6.216064453125,-4.954833984375
0.069,0.610595703125,6.296142578125,-5.795654296875
0.0695,1.411376953125,6.015869140625,-6.396240234375
0.07,2.612548828125,4.814697265625,-6.636474609375
0.0705,4.134033203125,3.373291015625,-6.996826171875
0.071,5.255126953125,2.052001953125,-7.156982421875
0.0715,5.935791015625,0.930908203125,-7.036865234375
0.072,6.256103515625,0.130126953125,-6.876708984375
0.0725,6.015869140625,-0.990966796875,-6.035888671875
0.073,5.615478515625,-2.192138671875,-4.714599609375
0.0735,5.495361328125,-3.673583984375,-3.473388671875
0.074,5.335205078125,-4.874755859375,-2.192138671875
0.0745,5.014892578125,-5.755615234375,-1.191162109375
0.075,4.494384765625,-6.356201171875,-0.350341796875
0.0755,3.333251953125,-6.396240234375,0.890869140625
0.076,1.931884765625,-6.556396484375,2.412353515625
0.0765,0.610595703125,-6.796630859375,3.933837890625
0.077,-0.470458984375,-6.916748046875,5.054931640625
0.0775,-1.151123046875,-7.036865234375,5.935791015625
0.078,-2.072021484375,-6.396240234375,6.376220703125
0.0785,-3.473388671875,-4.994873046875,6.576416015625
0.079,-4.914794921875,-3.713623046875,7.016845703125
0.0795,-5.915771484375,-2.432373046875,7.096923828125
0.08,-6.476318359375,-1.311279296875,6.976806640625
0.0805,-6.596435546875,-0.510498046875,6.576416015625
0.081,-6.316162109375,0.610595703125,5.535400390625
0.0815,-6.035888671875,1.971923828125,4.134033203125
0.082,-5.915771484375,3.493408203125,2.892822265625
0.0825,-5.635498046875,4.614501953125,1.691650390625
0.083,-5.315185546875,5.455322265625,0.770751953125
0.0835,-4.514404296875,5.735595703125,-0.310302734375
0.084,-3.193115234375,5.775634765625,-1.511474609375
0.0845,-1.791748046875,6.095947265625,-3.193115234375
0.085,-0.510498046875,6.256103515625,-4.634521484375
0.0855,0.450439453125,6.296142578125,-5.635498046875
0.086,1.131103515625,6.296142578125,-6.356201171875
0.0865,2.252197265625,5.295166015625,-6.676513671875
0.087,3.693603515625,3.853759765625,-6.916748046875
0.0875,5.054931640625,2.532470703125,-7.237060546875
0.088,5.895751953125,1.251220703125,-7.197021484375
0.0885,6.296142578125,0.290283203125,-6.996826171875
0.089,6.216064453125,-0.710693359375,-6.396240234375
0.0895,5.775634765625,-1.871826171875,-5.155029296875
0.09,5.615478515625,-3.273193359375,-3.833740234375
0.0905,5.415283203125,-4.634521484375,-2.512451171875
0.091,5.135009765625,-5.635498046875,-1.391357421875
0.0915,4.734619140625,-6.276123046875,-0.550537109375
0.092,3.693603515625,-6.436279296875,0.570556640625
0.0925,2.292236328125,-6.436279296875,1.931884765625
0.093,0.970947265625,-6.756591796875,3.533447265625
0.0935,-0.270263671875,-6.836669921875,4.814697265625
0.094,-0.990966796875,-6.916748046875,5.695556640625
0.0945,-1.791748046875,-6.636474609375,6.256103515625
0.095,-2.992919921875,-5.435302734375,6.496337890625
0.0955,-4.434326171875,-4.033935546875,6.816650390625
0.096,-5.595458984375,-2.752685546875,7.016845703125
0.0965,-6.276123046875,-1.631591796875,6.856689453125
0.097,-6.516357421875,-0.830810546875,6.696533203125
0.0975,-6.356201171875,0.170166015625,5.855712890625
0.098,-5.915771484375,1.331298828125,4.614501953125
0.0985,-5.795654296875,2.772705078125,3.413330078125
0.099,-5.635498046875,4.013916015625,2.172119140625
0.0995,-5.315185546875,4.854736328125,1.211181640625
0.1,-4.834716796875,5.415283203125,0.330322265625
0.1005,-3.793701171875,5.495361328125,-0.790771484375
0.101,-2.432373046875,5.695556640625,-2.192138671875
0.1015,-1.231201171875,5.935791015625,-3.713623046875
0.102,-0.270263671875,6.055908203125,-4.794677734375
0.1025,0.570556640625,6.216064453125,-5.715576171875
0.103,1.411376953125,5.735595703125,-6.115966796875
0.1035,2.612548828125,4.494384765625,-6.356201171875
0.104,4.013916015625,3.293212890625,-6.796630859375
0.1045,5.054931640625,2.052001953125,-6.916748046875
0.105,5.695556640625,1.010986328125,-6.876708984375
0.1055,5.855712890625,0.210205078125,-6.596435546875
0.106,5.655517578125,-0.790771484375,-5.755615234375
0.1065,5.415283203125,-1.951904296875,-4.634521484375
0.107,5.375244140625,-3.353271484375,-3.433349609375
0.1075,5.175048828125,-4.514404296875,-2.312255859375
0.108,4.974853515625,-5.435302734375,-1.391357421875
0.1085,4.334228515625,-5.875732421875,-0.510498046875
0.109,3.213134765625,-5.955810546875,0.690673828125
0.1095,2.052001953125,-6.356201171875,2.172119140625
0.11,0.850830078125,-6.556396484375,3.573486328125
0.1105,0.010009765625,-6.756591796875,4.614501953125
0.111,-0.790771484375,-6.796630859375,5.455322265625
0.1115,-1.871826171875,-6.115966796875,5.895751953125
0.112,-3.193115234375,-4.874755859375,6.216064453125
0.1125,-4.514404296875,-3.713623046875,6.576416015625
0.113,-5.435302734375,-2.552490234375,6.696533203125
0.1135,-6.035888671875,-1.631591796875,6.656494140625
0.114,-6.075927734375,-0.790771484375,6.216064453125
0.1145,-5.755615234375,0.330322265625,5.215087890625
0.115,-5.715576171875,1.571533203125,4.174072265625
0.1155,-5.635498046875,2.892822265625,3.012939453125
0.116,-5.435302734375,3.973876953125,1.971923828125
0.1165,-5.155029296875,4.734619140625,1.131103515625
0.117,-4.354248046875,5.054931640625,0.170166015625
0.1175,-3.193115234375,5.135009765625,-1.071044921875
0.118,-2.112060546875,5.615478515625,-2.552490234375
0.1185,-0.990966796875,5.775634765625,-3.833740234375
0.119,-0.270263671875,6.015869140625,-4.834716796875
0.1195,0.570556640625,5.895751953125,-5.475341796875
0.12,1.651611328125,5.014892578125,-5.835693359375
0.1205,2.972900390625,3.853759765625,-6.236083984375
0.121,4.174072265625,2.692626953125,-6.556396484375
0.1215,4.974853515625,1.611572265625,-6.596435546875
0.122,5.415283203125,0.890869140625,-6.596435546875
0.1225,5.415283203125,0.050048828125,-5.955810546875
0.123,5.094970703125,-1.031005859375,-4.994873046875
0.1235,5.135009765625,-2.312255859375,-4.033935546875
0.124,5.094970703125,-3.553466796875,-2.952880859375
0.1245,4.934814453125,-4.554443359375,-2.031982421875
0.125,4.614501953125,-5.235107421875,-1.271240234375
0.1255,3.733642578125,-5.475341796875,-0.270263671875
0.126,2.692626953125,-5.755615234375,1.051025390625
0.1265,1.651611328125,-6.156005859375,2.492431640625
0.127,0.690673828125,-6.396240234375,3.613525390625
0.1275,0.010009765625,-6.716552734375,4.614501953125
0.128,-0.990966796875,-6.356201171875,5.215087890625
0.1285,-2.112060546875,-5.395263671875,5.575439453125
0.129,-3.473388671875,-4.434326171875,6.055908203125
0.1295,-4.554443359375,-3.353271484375,6.336181640625
0.13,-5.315185546875,-2.272216796875,6.416259765625
0.1305,-5.635498046875,-1.551513671875,6.336181640625
0.131,-5.555419921875,-0.630615234375,5.615478515625
0.1315,-5.435302734375,0.490478515625,4.694580078125
0.132,-5.475341796875,1.771728515625,3.773681640625
0.1325,-5.435302734375,2.932861328125,2.772705078125
0.133,-5.315185546875,3.893798828125,1.931884765625
0.1335,-4.794677734375,4.454345703125,1.051025390625
0.134,-3.873779296875,4.654541015625,0.010009765625
0.1345,-2.952880859375,5.094970703125,-1.391357421875
0.135,-1.871826171875,5.455322265625,-2.752685546875
0.1355,-1.031005859375,5.735595703125,-3.833740234375
0.136,-0.310302734375,5.895751953125,-4.754638671875
0.1365,0.770751953125,5.375244140625,-5.275146484375
0.137,1.931884765625,4.414306640625,-5.635498046875
0.1375,3.173095703125,3.413330078125,-6.115966796875
0.138,4.214111328125,2.372314453125,-6.316162109375
0.1385,4.854736328125,1.571533203125,-6.436279296875
0.139,5.054931640625,0.770751953125,-6.115966796875
0.1395,4.934814453125,-0.230224609375,-5.395263671875
0.14,4.974853515625,-1.311279296875,-4.594482421875
0.1405,4.974853515625,-2.592529296875,-3.593505859375
0.141,4.934814453125,-3.673583984375,-2.712646484375
0.1415,4.814697265625,-4.554443359375,-1.951904296875
0.142,4.174072265625,-4.994873046875,-1.031005859375
0.1425,3.253173828125,-5.275146484375,0.130126953125
0.143,2.412353515625,-5.755615234375,1.411376953125
0.1435,1.411376953125,-6.075927734375,2.692626953125
0.144,0.690673828125,-6.396240234375,3.773681640625
0.1445,-0.190185546875,-6.476318359375,4.534423828125
0.145,-1.271240234375,-5.795654296875,4.974853515625
0.1455,-2.512451171875,-4.914794921875,5.495361328125
0.146,-3.713623046875,-3.873779296875,5.935791015625
0.1465,-4.554443359375,-2.912841796875,6.095947265625
0.147,-5.155029296875,-2.152099609375,6.256103515625
0.1475,-5.275146484375,-1.351318359375,5.815673828125
0.148,-5.155029296875,-0.430419921875,5.054931640625
0.1485,-5.275146484375,0.810791015625,4.334228515625
0.149,-5.355224609375,2.011962890625,3.413330078125
0.1495,-5.275146484375,3.052978515625,2.532470703125
0.15,-5.034912109375,3.853759765625,1.771728515625
0.1505,-4.354248046875,4.214111328125,0.770751953125
0.151,-3.513427734375,4.614501953125,-0.470458984375
0.1515,-2.592529296875,5.094970703125,-1.791748046875
0.152,-1.711669921875,5.455322265625,-2.952880859375
0.1525,-0.990966796875,5.815673828125,-4.033935546875
0.153,0.010009765625,5.615478515625,-4.714599609375
0.1535,1.051025390625,4.814697265625,-5.155029296875
0.154,2.372314453125,4.013916015625,-5.755615234375
0.1545,3.533447265625,3.012939453125,-6.115966796875
0.155,4.374267578125,2.052001953125,-6.276123046875
0.1555,4.814697265625,1.331298828125,-6.276123046875
0.156,4.854736328125,0.490478515625,-5.755615234375
0.1565,4.814697265625,-0.630615234375,-4.994873046875
0.157,4.974853515625,-1.871826171875,-4.154052734375
0.1575,4.974853515625,-3.032958984375,-3.233154296875
0.158,4.974853515625,-4.033935546875,-2.432373046875
0.1585,4.534423828125,-4.674560546875,-1.551513671875
0.159,3.693603515625,-5.034912109375,-0.510498046875
0.1595,2.852783203125,-5.515380859375,0.890869140625
0.16,1.891845703125,-5.955810546875,2.172119140625
0.1605,1.051025390625,-6.396240234375,3.293212890625
0.161,0.290283203125,-6.596435546875,4.254150390625
0.1615,-0.830810546875,-6.115966796875,4.814697265625
0.162,-2.031982421875,-5.155029296875,5.335205078125
0.1625,-3.353271484375,-4.194091796875,5.855712890625
0.163,-4.394287109375,-3.153076171875,6.095947265625
0.1635,-5.114990234375,-2.272216796875,6.296142578125
0.164,-5.315185546875,-1.511474609375,6.015869140625
0.1645,-5.235107421875,-0.590576171875,5.255126953125
0.165,-5.315185546875,0.650634765625,4.454345703125
0.1655,-5.395263671875,1.931884765625,3.533447265625
0.166,-5.275146484375,3.052978515625,2.572509765625
0.1665,-5.155029296875,3.933837890625,1.771728515625
0.167,-4.514404296875,4.334228515625,0.810791015625
0.1675,-3.553466796875,4.614501953125,-0.390380859375
0.168,-2.632568359375,5.135009765625,-1.751708984375
0.1685,-1.631591796875,5.415283203125,-3.072998046875
0.169,-0.910888671875,5.735595703125,-4.114013671875
0.1695,0.010009765625,5.735595703125,-4.874755859375
0.17,1.091064453125,5.014892578125,-5.275146484375
0.1705,2.412353515625,4.013916015625,-5.795654296875
0.171,3.653564453125,2.932861328125,-6.196044921875
0.1715,4.494384765625,1.931884765625,-6.316162109375
0.172,5.054931640625,1.211181640625,-6.396240234375
0.1725,5.054931640625,0.330322265625,-5.835693359375
0.173,4.854736328125,-0.750732421875,-4.994873046875
0.1735,4.974853515625,-1.951904296875,-4.114013671875
0.174,5.014892578125,-3.233154296875,-3.113037109375
0.1745,4.894775390625,-4.234130859375,-2.232177734375
0.175,4.614501953125,-4.994873046875,-1.391357421875
0.1755,3.773681640625,-5.275146484375,-0.390380859375
0.176,2.772705078125,-5.595458984375,0.970947265625
0.1765,1.771728515625,-6.115966796875,2.292236328125
0.177,0.810791015625,-6.356201171875,3.493408203125
0.1775,0.130126953125,-6.676513671875,4.494384765625
0.178,-0.910888671875,-6.236083984375,5.094970703125
0.1785,-2.112060546875,-5.275146484375,5.455322265625
0.179,-3.473388671875,-4.234130859375,6.015869140625
0.1795,-4.554443359375,-3.153076171875,6.296142578125
0.18,-5.275146484375,-2.192138671875,6.376220703125
0.1805,-5.635498046875,-1.431396484375,6.256103515625
0.181,-5.515380859375,-0.510498046875,5.455322265625
0.1815,-5.395263671875,0.730712890625,4.494384765625
0.182,-5.475341796875,2.052001953125,3.533447265625
0.1825,-5.395263671875,3.253173828125,2.492431640625
0.183,-5.235107421875,4.134033203125,1.611572265625
0.1835,-4.674560546875,4.614501953125,0.770751953125
0.184,-3.633544921875,4.814697265625,-0.430419921875
0.1845,-2.632568359375,5.215087890625,-1.831787109375
0.185,-1.551513671875,5.575439453125,-3.193115234375
0.1855,-0.710693359375,5.775634765625,-4.314208984375
0.186,0.130126953125,6.015869140625,-5.155029296875
0.1865,1.171142578125,5.255126953125,-5.595458984375
0.187,2.492431640625,4.134033203125,-5.955810546875
0.1875,3.813720703125,3.052978515625,-6.436279296875
0.188,4.774658203125,1.931884765625,-6.556396484375
