wavelength,x,y,z
0.0,-5.28515625,0.48046875,4.6044921875
0.0005,-5.205078125,1.681640625,3.5634765625
0.001,-5.0048828125,2.7626953125,2.4423828125
0.0015,-4.8046875,3.68359375,1.5615234375
0.002,-4.484375,4.244140625,0.80078125
0.0025,-3.763671875,4.6044921875,-0.240234375
0.003,-2.8828125,5.0048828125,-1.44140625
0.0035,-1.6416015625,5.1650390625,-2.7626953125
0.004,-0.8408203125,5.365234375,-3.763671875
0.0045,0.0,5.4853515625,-4.64453125
0.005,0.880859375,5.2451171875,-5.3251953125
0.0055,2.0419921875,4.3642578125,-5.765625
0.006,3.1630859375,3.3232421875,-6.0859375
0.0065,4.083984375,2.1220703125,-6.0859375
0.007,4.6044921875,1.28125,-6.1259765625
0.0075,4.884765625,0.6005859375,-5.92578125
0.008,4.9248046875,-0.3203125,-5.4052734375
0.0085,4.8447265625,-1.361328125,-4.564453125
0.009,4.7646484375,-2.642578125,-3.443359375
0.0095,4.5244140625,-3.603515625,-2.4423828125
0.01,4.3642578125,-4.4443359375,-1.6015625
0.0105,3.9638671875,-5.0048828125,-0.8408203125
0.011,3.1630859375,-5.3251953125,0.3603515625
0.0115,2.2021484375,-5.765625,1.6015625
0.012,1.12109375,-5.845703125,2.8427734375
0.0125,0.3603515625,-6.1259765625,3.84375
0.013,-0.5205078125,-6.166015625,4.6845703125
0.0135,-1.5615234375,-5.7255859375,5.365234375
0.014,-2.72265625,-4.7646484375,5.7255859375
0.0145,-3.8837890625,-3.603515625,5.9658203125
0.015,-4.64453125,-2.5224609375,5.92578125
0.0155,-5.125,-1.8017578125,5.92578125
0.016,-5.28515625,-1.0810546875,5.6455078125
0.0165,-5.2451171875,-0.2001953125,4.96484375
0.017,-5.1650390625,1.041015625,4.0439453125
0.0175,-5.0849609375,2.2822265625,2.9228515625
0.018,-4.884765625,3.2431640625,1.9619140625
0.0185,-4.64453125,3.9638671875,1.201171875
0.019,-4.1640625,4.484375,0.3603515625
0.0195,-3.203125,4.8046875,-0.9609375
0.02,-2.1220703125,5.0849609375,-2.2822265625
0.0205,-1.1611328125,5.28515625,-3.4033203125
0.021,-0.400390625,5.4853515625,-4.3642578125
0.0215,0.560546875,5.365234375,-5.125
0.022,1.681640625,4.6044921875,-5.685546875
0.0225,2.8828125,3.6435546875,-6.0458984375
0.023,3.9638671875,2.40234375,-6.166015625
0.0235,4.6044921875,1.4013671875,-6.1259765625
0.024,4.96484375,0.720703125,-6.0458984375
0.0245,5.0048828125,-0.2001953125,-5.6455078125
0.025,4.9248046875,-1.28125,-4.724609375
0.0255,4.8447265625,-2.4423828125,-3.68359375
0.026,4.6044921875,-3.603515625,-2.5224609375
0.0265,4.484375,-4.484375,-1.6015625
0.027,4.083984375,-5.044921875,-0.8408203125
0.0275,3.3232421875,-5.4453125,0.2802734375
0.028,2.2822265625,-5.765625,1.5615234375
0.0285,1.12109375,-5.92578125,2.8828125
0.029,0.2802734375,-6.0859375,3.8837890625
0.0295,-0.6005859375,-6.2060546875,4.8046875
0.03,-1.5615234375,-5.8056640625,5.4453125
0.0305,-2.7626953125,-4.8447265625,5.8857421875
0.031,-3.923828125,-3.68359375,6.1259765625
0.0315,-4.8447265625,-2.482421875,6.0859375
0.032,-5.28515625,-1.6416015625,6.005859375
0.0325,-5.4453125,-0.9609375,5.7255859375
0.033,-5.4052734375,0.0400390625,5.044921875
0.0335,-5.3251953125,1.201171875,4.0439453125
0.034,-5.1650390625,2.482421875,2.8828125
0.0345,-4.9248046875,3.4833984375,1.841796875
0.035,-4.64453125,4.2041015625,1.0009765625
0.0355,-4.1640625,4.64453125,0.2001953125
0.036,-3.1630859375,4.96484375,-1.0810546875
0.0365,-2.1220703125,5.28515625,-2.40234375
0.037,-1.0009765625,5.365234375,-3.603515625
0.0375,-0.240234375,5.525390625,-4.5244140625
0.038,0.6806640625,5.4453125,-5.3251953125
0.0385,1.76171875,4.8447265625,-5.92578125
0.039,3.04296875,3.68359375,-6.2861328125
0.0395,4.1240234375,2.40234375,-6.3662109375
0.04,4.8046875,1.3212890625,-6.24609375
0.0405,5.125,0.560546875,-6.166015625
0.041,5.205078125,-0.3603515625,-5.7255859375
0.0415,5.0849609375,-1.3212890625,-4.8046875
0.042,4.96484375,-2.5224609375,-3.763671875
0.0425,4.724609375,-3.8037109375,-2.482421875
0.043,4.484375,-4.64453125,-1.521484375
0.0435,4.1240234375,-5.28515625,-0.720703125
0.044,3.4833984375,-5.6455078125,0.2802734375
0.0445,2.322265625,-5.845703125,1.5615234375
0.045,1.12109375,-6.0859375,3.0029296875
0.0455,0.1201171875,-6.166015625,4.0439453125
0.046,-0.640625,-6.2861328125,4.9248046875
0.0465,-1.6015625,-5.9658203125,5.60546875
0.047,-2.8427734375,-5.0048828125,6.0458984375
0.0475,-4.00390625,-3.84375,6.326171875
0.048,-5.0048828125,-2.5625,6.326171875
0.0485,-5.4853515625,-1.6015625,6.1259765625
0.049,-5.765625,-0.9208984375,5.92578125
0.0495,-5.7255859375,0.0,5.3251953125
0.05,-5.4853515625,1.2412109375,4.244140625
0.0505,-5.3251953125,2.5224609375,3.04296875
0.051,-5.0849609375,3.6435546875,1.841796875
0.0515,-4.8046875,4.4443359375,0.9609375
0.052,-4.2841796875,4.9248046875,0.16015625
0.0525,-3.36328125,5.1650390625,-1.041015625
0.053,-2.2021484375,5.4853515625,-2.482421875
0.0535,-0.9208984375,5.60546875,-3.8837890625
0.054,0.0400390625,5.685546875,-4.8046875
0.0545,0.80078125,5.685546875,-5.6455078125
0.055,1.921875,5.0849609375,-6.2861328125
0.0555,3.2431640625,3.84375,-6.646484375
0.056,4.4443359375,2.5224609375,-6.7666015625
0.0565,5.2451171875,1.201171875,-6.6064453125
0.057,5.60546875,0.3603515625,-6.4462890625
0.0575,5.60546875,-0.6005859375,-6.0458984375
0.058,5.4853515625,-1.6015625,-5.044921875
0.0585,5.28515625,-2.9228515625,-3.8037109375
0.059,5.044921875,-4.2841796875,-2.40234375
0.0595,4.64453125,-5.205078125,-1.28125
0.06,4.244140625,-5.8056640625,-0.400390625
0.0605,3.4833984375,-6.1259765625,0.640625
0.061,2.2021484375,-6.3662109375,2.0419921875
0.0615,0.8408203125,-6.486328125,3.5634765625
0.062,-0.4404296875,-6.4462890625,4.7646484375
0.0625,-1.1611328125,-6.4462890625,5.5654296875
0.063,-2.08203125,-6.1259765625,6.24609375
0.0635,-3.283203125,-5.1650390625,6.6865234375
0.064,-4.64453125,-3.763671875,6.88671875
0.0645,-5.6455078125,-2.3623046875,6.806640625
0.065,-6.1259765625,-1.2412109375,6.486328125
0.0655,-6.2861328125,-0.4404296875,6.1259765625
0.066,-6.1259765625,0.6005859375,5.4453125
0.0665,-5.845703125,1.841796875,4.1640625
0.067,-5.60546875,3.1630859375,2.8427734375
0.0675,-5.205078125,4.32421875,1.521484375
0.068,-4.7646484375,5.0849609375,0.5205078125
0.0685,-4.244140625,5.4853515625,-0.400390625
0.069,-3.283203125,5.685546875,-1.44140625
0.0695,-1.921875,5.8056640625,-2.9228515625
0.07,-0.5205078125,5.8857421875,-4.3642578125
0.0705,0.560546875,5.8056640625,-5.3251953125
0.071,1.2412109375,5.7255859375,-6.0859375
0.0715,2.2421875,5.1650390625,-6.6865234375
0.072,3.5634765625,3.9638671875,-7.0068359375
0.0725,4.724609375,2.5625,-7.126953125
0.073,5.60546875,1.1611328125,-6.9267578125
0.0735,5.8857421875,0.16015625,-6.6064453125
0.074,6.005859375,-0.6806640625,-6.166015625
0.0745,5.765625,-1.6015625,-5.4052734375
0.075,5.4853515625,-2.9228515625,-4.0439453125
0.0755,5.1650390625,-4.244140625,-2.6025390625
0.076,4.7646484375,-5.28515625,-1.3212890625
0.0765,4.32421875,-5.92578125,-0.400390625
0.077,3.68359375,-6.326171875,0.560546875
0.0775,2.5224609375,-6.4462890625,1.7216796875
0.078,1.1611328125,-6.646484375,3.283203125
0.0785,-0.3203125,-6.56640625,4.6044921875
0.079,-1.12109375,-6.5263671875,5.4453125
0.0795,-1.8818359375,-6.40625,6.1259765625
0.08,-2.9228515625,-5.6455078125,6.6865234375
0.0805,-4.2841796875,-4.32421875,6.966796875
0.081,-5.4052734375,-2.9228515625,6.966796875
0.0815,-6.1259765625,-1.6416015625,6.646484375
0.082,-6.3662109375,-0.720703125,6.3662109375
0.0825,-6.2861328125,0.2001953125,5.845703125
0.083,-6.0458984375,1.28125,4.8447265625
0.0835,-5.765625,2.5625,3.5234375
0.084,-5.4453125,3.84375,2.08203125
0.0845,-5.044921875,4.8046875,0.9609375
0.085,-4.564453125,5.365234375,0.1201171875
0.0855,-3.84375,5.6455078125,-0.9208984375
0.086,-2.5224609375,5.8056640625,-2.2822265625
0.0865,-1.1611328125,5.9658203125,-3.8037109375
0.087,0.1201171875,5.845703125,-4.96484375
0.0875,0.9208984375,5.845703125,-5.765625
0.088,1.76171875,5.5654296875,-6.486328125
0.0885,2.9228515625,4.6044921875,-6.9267578125
0.089,4.244140625,3.203125,-7.126953125
0.0895,5.2451171875,1.76171875,-7.0869140625
0.09,5.845703125,0.6005859375,-6.7265625
0.0905,6.005859375,-0.3203125,-6.4462890625
0.091,5.92578125,-1.2412109375,-5.765625
0.0915,5.685546875,-2.4423828125,-4.564453125
0.092,5.4052734375,-3.8037109375,-3.203125
0.0925,5.0048828125,-5.0048828125,-1.8017578125
0.093,4.564453125,-5.8056640625,-0.720703125
0.0935,4.00390625,-6.326171875,0.240234375
0.094,3.123046875,-6.56640625,1.28125
0.0945,1.6416015625,-6.6865234375,2.8427734375
0.095,0.2001953125,-6.7265625,4.32421875
0.0955,-0.9609375,-6.6064453125,5.3251953125
0.096,-1.6416015625,-6.56640625,6.0859375
0.0965,-2.6826171875,-6.005859375,6.6865234375
0.097,-4.0439453125,-4.7646484375,7.046875
0.0975,-5.28515625,-3.36328125,7.0869140625
0.098,-6.1259765625,-1.8818359375,6.9267578125
0.0985,-6.4462890625,-0.80078125,6.5263671875
0.099,-6.486328125,0.1201171875,6.1259765625
0.0995,-6.326171875,1.041015625,5.2451171875
0.1,-5.9658203125,2.40234375,3.84375
0.1005,-5.6455078125,3.8037109375,2.40234375
0.101,-5.1650390625,4.8046875,1.0810546875
0.1015,-4.724609375,5.4453125,0.16015625
0.102,-4.00390625,5.765625,-0.8408203125
0.1025,-2.8427734375,5.92578125,-2.08203125
0.103,-1.4013671875,6.0859375,-3.603515625
0.1035,0.080078125,6.005859375,-4.96484375
0.104,0.9208984375,5.8857421875,-5.765625
0.1045,1.6416015625,5.685546875,-6.486328125
0.105,2.7626953125,4.884765625,-7.0068359375
0.1055,4.083984375,3.4833984375,-7.20703125
0.106,5.1650390625,2.1220703125,-7.1669921875
0.1065,5.845703125,0.7607421875,-6.806640625
0.107,6.0458984375,-0.2001953125,-6.5263671875
0.1075,6.005859375,-1.041015625,-5.9658203125
0.108,5.7255859375,-2.08203125,-4.96484375
0.1085,5.4052734375,-3.36328125,-3.603515625
0.109,5.044921875,-4.64453125,-2.2021484375
0.1095,4.6044921875,-5.4853515625,-1.0009765625
0.11,4.1240234375,-6.1259765625,-0.16015625
0.1105,3.4033203125,-6.3662109375,0.8408203125
0.111,2.08203125,-6.4462890625,2.162109375
0.1115,0.7607421875,-6.56640625,3.603515625
0.112,-0.6005859375,-6.4462890625,4.7646484375
0.1125,-1.28125,-6.486328125,5.5654296875
0.113,-2.08203125,-6.24609375,6.2060546875
0.1135,-3.203125,-5.4052734375,6.6064453125
0.114,-4.4443359375,-4.00390625,6.8466796875
0.1145,-5.4453125,-2.642578125,6.7666015625
0.115,-5.9658203125,-1.44140625,6.4462890625
0.1155,-6.2060546875,-0.6806640625,6.24609375
0.116,-6.1259765625,0.240234375,5.6455078125
0.1165,-5.8056640625,1.28125,4.564453125
0.117,-5.60546875,2.5625,3.3232421875
0.1175,-5.2451171875,3.763671875,2.001953125
0.118,-4.884765625,4.6044921875,1.0009765625
0.1185,-4.484375,5.1650390625,0.16015625
0.119,-3.7236328125,5.4453125,-0.8408203125
0.1195,-2.482421875,5.6455078125,-2.2421875
0.12,-1.1611328125,5.7255859375,-3.68359375
0.1205,0.0,5.685546875,-4.7646484375
0.121,0.720703125,5.765625,-5.60546875
0.1215,1.6015625,5.4052734375,-6.2861328125
0.122,2.8828125,4.404296875,-6.646484375
0.1225,4.083984375,3.1630859375,-6.8466796875
0.123,5.044921875,1.76171875,-6.7265625
0.1235,5.525390625,0.7607421875,-6.56640625
0.124,5.7255859375,0.0,-6.2861328125
0.1245,5.6455078125,-1.0009765625,-5.6455078125
0.125,5.4052734375,-2.2021484375,-4.484375
0.1255,5.1650390625,-3.5634765625,-3.1630859375
0.126,4.8046875,-4.64453125,-1.8818359375
0.1265,4.484375,-5.4052734375,-0.9609375
0.127,3.8837890625,-5.845703125,0.0
0.1275,2.9228515625,-6.1259765625,1.12109375
0.128,1.681640625,-6.326171875,2.5224609375
0.1285,0.3603515625,-6.3662109375,3.84375
0.129,-0.6005859375,-6.40625,4.8046875
0.1295,-1.361328125,-6.40625,5.5654296875
0.13,-2.322265625,-5.765625,6.166015625
0.1305,-3.603515625,-4.564453125,6.4462890625
0.131,-4.6845703125,-3.283203125,6.56640625
0.1315,-5.4453125,-2.0419921875,6.3662109375
0.132,-5.8056640625,-1.201171875,6.2060546875
0.1325,-5.8857421875,-0.48046875,5.8056640625
0.133,-5.7255859375,0.6005859375,5.0048828125
0.1335,-5.4853515625,1.76171875,3.84375
0.134,-5.2451171875,3.0029296875,2.6025390625
0.1345,-4.884765625,3.9638671875,1.4814453125
0.135,-4.6044921875,4.6044921875,0.6806640625
0.1355,-4.00390625,5.044921875,-0.2802734375
0.136,-3.0029296875,5.2451171875,-1.4013671875
0.1365,-1.8017578125,5.4453125,-2.7626953125
0.137,-0.640625,5.4453125,-3.923828125
0.1375,0.16015625,5.525390625,-4.8447265625
0.138,0.9609375,5.525390625,-5.60546875
0.1385,1.9619140625,4.8447265625,-6.1259765625
0.139,3.1630859375,3.7236328125,-6.40625
0.1395,4.2041015625,2.4423828125,-6.4462890625
0.14,4.9248046875,1.3212890625,-6.326171875
0.1405,5.2451171875,0.6005859375,-6.24609375
0.141,5.3251953125,-0.3203125,-5.8056640625
0.1415,5.1650390625,-1.2412109375,-5.0048828125
0.142,5.044921875,-2.40234375,-3.8837890625
0.1425,4.7646484375,-3.603515625,-2.6826171875
0.143,4.484375,-4.5244140625,-1.681640625
0.1435,4.244140625,-5.1650390625,-0.9208984375
0.144,3.6435546875,-5.60546875,0.080078125
0.1445,2.5224609375,-5.92578125,1.3212890625
0.145,1.3212890625,-6.0859375,2.642578125
0.1455,0.3203125,-6.166015625,3.763671875
0.146,-0.48046875,-6.2861328125,4.64453125
0.1465,-1.3212890625,-6.0859375,5.4052734375
0.147,-2.4423828125,-5.2451171875,5.845703125
0.1475,-3.6435546875,-4.1640625,6.1259765625
0.148,-4.6044921875,-2.9228515625,6.1259765625
0.1485,-5.1650390625,-1.9619140625,6.0859375
0.149,-5.4853515625,-1.28125,5.9658203125
0.1495,-5.525390625,-0.5205078125,5.4853515625
0.15,-5.4052734375,0.640625,4.564453125
0.1505,-5.28515625,1.8818359375,3.4833984375
0.151,-5.0048828125,2.962890625,2.3623046875
0.1515,-4.8447265625,3.8037109375,1.4814453125
0.152,-4.4443359375,4.404296875,0.6806640625
0.1525,-3.7236328125,4.724609375,-0.400390625
0.153,-2.72265625,5.0849609375,-1.6416015625
0.1535,-1.5615234375,5.1650390625,-2.962890625
0.154,-0.6806640625,5.4052734375,-3.923828125
0.1545,0.1201171875,5.5654296875,-4.8447265625
0.155,1.0810546875,5.205078125,-5.525390625
0.1555,2.2421875,4.2841796875,-5.92578125
0.156,3.4033203125,3.1630859375,-6.166015625
0.1565,4.244140625,1.9619140625,-6.1259765625
0.157,4.7646484375,1.201171875,-6.1259765625
0.1575,5.044921875,0.48046875,-5.92578125
0.158,5.0048828125,-0.5205078125,-5.3251953125
0.1585,4.9248046875,-1.6015625,-4.4443359375
0.159,4.7646484375,-2.8427734375,-3.283203125
0.1595,4.5244140625,-3.8037109375,-2.2421875
0.16,4.3642578125,-4.64453125,-1.44140625
0.1605,3.8837890625,-5.1650390625,-0.640625
0.161,3.04296875,-5.525390625,0.6005859375
0.1615,1.9619140625,-5.845703125,1.841796875
0.162,0.9208984375,-5.92578125,3.04296875
0.1625,0.2001953125,-6.1259765625,4.00390625
0.163,-0.720703125,-6.1259765625,4.8447265625
0.1635,-1.7216796875,-5.6455078125,5.4453125
0.164,-2.9228515625,-4.64453125,5.8857421875
0.1645,-4.00390625,-3.4833984375,6.005859375
0.165,-4.7646484375,-2.4423828125,5.92578125
0.1655,-5.1650390625,-1.681640625,5.92578125
0.166,-5.3251953125,-0.9609375,5.6455078125
0.1665,-5.28515625,0.1201171875,4.884765625
0.167,-5.205078125,1.2412109375,3.9638671875
0.1675,-5.044921875,2.40234375,2.8427734375
0.168,-4.8447265625,3.3232421875,1.921875
0.1685,-4.6044921875,4.00390625,1.12109375
0.169,-4.083984375,4.484375,0.240234375
0.1695,-3.203125,4.8046875,-1.0810546875
0.17,-2.0419921875,5.125,-2.3623046875
0.1705,-1.12109375,5.28515625,-3.4033203125
0.171,-0.3603515625,5.4853515625,-4.404296875
0.1715,0.6005859375,5.365234375,-5.1650390625
0.172,1.76171875,4.6044921875,-5.7255859375
0.1725,2.9228515625,3.603515625,-6.0859375
0.173,3.8837890625,2.40234375,-6.1259765625
0.1735,4.5244140625,1.4814453125,-6.1259765625
0.174,4.9248046875,0.7607421875,-6.0458984375
0.1745,5.044921875,0.0,-5.60546875
0.175,4.96484375,-1.1611328125,-4.8046875
0.1755,4.8447265625,-2.40234375,-3.68359375
0.176,4.6044921875,-3.5234375,-2.6025390625
0.1765,4.484375,-4.4443359375,-1.7216796875
0.177,4.1240234375,-5.0849609375,-0.9208984375
0.1775,3.3232421875,-5.4453125,0.2001953125
0.178,2.3623046875,-5.765625,1.4814453125
0.1785,1.201171875,-5.8857421875,2.7626953125
0.179,0.3603515625,-6.0859375,3.8037109375
0.1795,-0.5205078125,-6.24609375,4.64453125
0.18,-1.44140625,-5.845703125,5.4052734375
0.1805,-2.6826171875,-4.884765625,5.8056640625
0.181,-3.84375,-3.7236328125,6.0458984375
0.1815,-4.64453125,-2.6025390625,6.005859375
0.182,-5.1650390625,-1.8017578125,6.005859375
0.1825,-5.4052734375,-1.041015625,5.7255859375
0.183,-5.365234375,-0.16015625,5.0849609375
0.1835,-5.28515625,1.0810546875,4.1240234375
0.184,-5.125,2.2421875,3.04296875
0.1845,-4.884765625,3.203125,1.9619140625
0.185,-4.6845703125,4.00390625,1.201171875
0.1855,-4.2041015625,4.484375,0.3203125
0.186,-3.283203125,4.8447265625,-0.9208984375
0.1865,-2.2421875,5.2451171875,-2.2421875
0.187,-1.1611328125,5.3251953125,-3.4033203125
0.1875,-0.3603515625,5.525390625,-4.3642578125
0.188,0.560546875,5.4853515625,-5.205078125
0.1885,1.6015625,4.8447265625,-5.8056640625
0.189,2.8828125,3.8037109375,-6.166015625
0.1895,3.9638671875,2.5224609375,-6.2861328125
0.19,4.6845703125,1.44140625,-6.24609375
0.1905,5.0849609375,0.720703125,-6.1259765625
0.191,5.1650390625,-0.2001953125,-5.765625
0.1915,5.0849609375,-1.28125,-4.8447265625
0.192,4.96484375,-2.4423828125,-3.84375
0.1925,4.7646484375,-3.7236328125,-2.5625
0.193,4.484375,-4.6044921875,-1.6416015625
0.1935,4.1640625,-5.28515625,-0.80078125
0.194,3.4833984375,-5.60546875,0.240234375
0.1945,2.3623046875,-5.92578125,1.5615234375
0.195,1.12109375,-6.0859375,2.962890625
0.1955,0.16015625,-6.166015625,4.00390625
0.196,-0.640625,-6.2861328125,4.9248046875
0.1965,-1.6015625,-5.9658203125,5.60546875
0.197,-2.8828125,-5.0048828125,6.0859375
0.1975,-4.0439453125,-3.8037109375,6.326171875
0.198,-5.0048828125,-2.482421875,6.2861328125
0.1985,-5.4853515625,-1.6015625,6.1259765625
0.199,-5.685546875,-0.8408203125,5.8857421875
0.1995,-5.6455078125,0.1201171875,5.28515625
0.2,-5.4853515625,1.3212890625,4.1640625
0.2005,-5.28515625,2.5625,3.0029296875
0.201,-5.0048828125,3.5634765625,1.841796875
0.2015,-4.724609375,4.3642578125,0.9208984375
0.202,-4.2041015625,4.884765625,0.1201171875
0.2025,-3.2431640625,5.1650390625,-1.12109375
0.203,-2.1220703125,5.4453125,-2.482421875
0.2035,-0.8408203125,5.4853515625,-3.84375
0.204,0.0400390625,5.60546875,-4.7646484375
0.2045,0.7607421875,5.60546875,-5.525390625
0.205,1.8818359375,5.044921875,-6.2060546875
0.2055,3.1630859375,3.84375,-6.56640625
0.206,4.32421875,2.5625,-6.6865234375
0.2065,5.0849609375,1.28125,-6.5263671875
0.207,5.4453125,0.48046875,-6.3662109375
0.2075,5.5654296875,-0.48046875,-5.9658203125
0.208,5.4052734375,-1.4814453125,-5.0849609375
0.2085,5.2451171875,-2.8427734375,-3.8837890625
0.209,4.96484375,-4.1640625,-2.5224609375
0.2095,4.6044921875,-5.0849609375,-1.44140625
0.21,4.244140625,-5.685546875,-0.560546875
0.2105,3.5234375,-6.0458984375,0.48046875
0.211,2.2822265625,-6.2861328125,1.8818359375
0.2115,1.0009765625,-6.4462890625,3.3232421875
0.212,-0.2802734375,-6.40625,4.484375
0.2125,-1.0009765625,-6.486328125,5.365234375
0.213,-1.921875,-6.166015625,6.0859375
0.2135,-3.1630859375,-5.2451171875,6.56640625
0.214,-4.5244140625,-3.8837890625,6.8466796875
0.2145,-5.4853515625,-2.4423828125,6.7265625
0.215,-6.0458984375,-1.3212890625,6.4462890625
0.2155,-6.2060546875,-0.5205078125,6.166015625
0.216,-6.1259765625,0.48046875,5.4853515625
0.2165,-5.845703125,1.7216796875,4.2841796875
0.217,-5.6455078125,3.04296875,2.962890625
0.2175,-5.28515625,4.1640625,1.5615234375
0.218,-4.8046875,4.96484375,0.6005859375
0.2185,-4.2841796875,5.4052734375,-0.3203125
0.219,-3.36328125,5.60546875,-1.4013671875
0.2195,-1.9619140625,5.845703125,-2.962890625
0.22,-0.560546875,5.8857421875,-4.404296875
0.2205,0.48046875,5.8056640625,-5.3251953125
0.221,1.2412109375,5.765625,-6.1259765625
0.2215,2.2822265625,5.125,-6.7265625
0.222,3.6435546875,3.8837890625,-7.046875
0.2225,4.8046875,2.5224609375,-7.1669921875
0.223,5.6455078125,1.12109375,-6.9267578125
0.2235,5.9658203125,0.16015625,-6.6064453125
0.224,6.0458984375,-0.80078125,-6.166015625
0.2245,5.8056640625,-1.8017578125,-5.3251953125
0.225,5.525390625,-3.1630859375,-3.923828125
0.2255,5.1650390625,-4.5244140625,-2.5224609375
0.226,4.7646484375,-5.4453125,-1.2412109375
0.2265,4.2841796875,-6.0859375,-0.3203125
0.227,3.5634765625,-6.40625,0.720703125
