wavelength,x,y,z
0.0,3.84375,-5.92578125,0.0400390625
0.0005,3.203125,-6.4462890625,1.12109375
0.001,1.8017578125,-6.88671875,2.6826171875
0.0015,0.48046875,-6.806640625,4.083984375
0.002,-0.640625,-6.3662109375,4.884765625
0.0025,-1.4013671875,-6.326171875,5.4853515625
0.003,-2.2822265625,-5.8857421875,6.2060546875
0.0035,-3.36328125,-5.4052734375,7.046875
0.004,-4.884765625,-3.8037109375,7.1669921875
0.0045,-5.7255859375,-2.40234375,6.8466796875
0.005,-6.166015625,-1.1611328125,6.40625
0.0055,-6.166015625,-0.240234375,6.005859375
0.006,-6.326171875,0.8408203125,5.365234375
0.0065,-6.24609375,2.2822265625,4.244140625
0.007,-5.92578125,3.4833984375,2.8828125
0.0075,-5.2451171875,4.484375,1.361328125
0.008,-4.564453125,4.96484375,0.3603515625
0.0085,-3.8837890625,5.4453125,-0.6806640625
0.009,-3.4033203125,6.0458984375,-1.681640625
0.0095,-1.8017578125,6.0458984375,-3.4833984375
0.01,-0.3203125,6.005859375,-4.724609375
0.0105,0.7607421875,5.685546875,-5.4453125
0.011,1.44140625,5.4853515625,-5.9658203125
0.0115,2.6025390625,4.96484375,-6.7265625
0.012,3.8037109375,4.083984375,-7.3671875
0.0125,4.96484375,2.7626953125,-7.3271484375
0.013,5.525390625,1.0009765625,-6.7666015625
0.0135,5.765625,0.0400390625,-6.24609375
0.014,5.845703125,-1.0009765625,-5.8056640625
0.0145,6.0458984375,-1.921875,-5.28515625
0.015,5.685546875,-3.4033203125,-3.68359375
0.0155,5.2451171875,-4.6044921875,-2.322265625
0.016,4.484375,-5.4052734375,-1.041015625
0.0165,3.763671875,-5.9658203125,0.0
0.017,3.203125,-6.3662109375,0.9609375
0.0175,2.2421875,-6.9267578125,2.162109375
0.018,0.8408203125,-6.7666015625,3.68359375
0.0185,-0.6005859375,-6.4462890625,4.724609375
0.019,-1.2412109375,-6.24609375,5.28515625
0.0195,-1.9619140625,-6.0458984375,5.8857421875
0.02,-3.0029296875,-5.525390625,6.7265625
0.0205,-4.4443359375,-4.2041015625,6.966796875
0.021,-5.4052734375,-2.7626953125,6.966796875
0.0215,-5.92578125,-1.44140625,6.3662109375
0.022,-6.0458984375,-0.6005859375,5.8857421875
0.0225,-6.1259765625,0.48046875,5.4453125
0.023,-6.2060546875,1.44140625,4.8046875
0.0235,-5.8857421875,2.802734375,3.36328125
0.024,-5.205078125,3.9638671875,1.921875
0.0245,-4.564453125,4.484375,0.7607421875
0.025,-4.0439453125,5.044921875,0.0
0.0255,-3.5234375,5.525390625,-1.2412109375
0.026,-2.3623046875,5.92578125,-2.482421875
0.0265,-1.12109375,5.9658203125,-3.8037109375
0.027,0.1201171875,5.525390625,-4.6845703125
0.0275,0.80078125,5.4052734375,-5.28515625
0.028,1.6015625,5.1650390625,-6.0458984375
0.0285,2.6025390625,4.7646484375,-6.88671875
0.029,4.1240234375,3.4033203125,-7.0068359375
0.0295,4.9248046875,1.8818359375,-6.7265625
0.03,5.28515625,0.80078125,-6.2861328125
0.0305,5.4853515625,0.0,-5.9658203125
0.031,5.60546875,-1.0810546875,-5.5654296875
0.0315,5.60546875,-2.2822265625,-4.6044921875
0.032,5.2451171875,-3.4033203125,-3.36328125
0.0325,4.8046875,-4.404296875,-2.0419921875
0.033,4.244140625,-5.125,-1.0009765625
0.0335,3.84375,-5.60546875,0.0
0.034,3.283203125,-6.2060546875,0.9208984375
0.0345,1.921875,-6.40625,2.40234375
0.035,0.6005859375,-6.2861328125,3.68359375
0.0355,-0.400390625,-6.166015625,4.404296875
0.036,-1.201171875,-6.0859375,5.0849609375
0.0365,-2.1220703125,-5.6455078125,6.0458984375
0.037,-3.203125,-5.125,6.5263671875
0.0375,-4.3642578125,-3.8037109375,6.6865234375
0.038,-5.1650390625,-2.322265625,6.326171875
0.0385,-5.5654296875,-1.361328125,5.92578125
0.039,-5.765625,-0.560546875,5.685546875
0.0395,-5.92578125,0.48046875,5.365234375
0.04,-5.845703125,1.6416015625,4.083984375
0.0405,-5.4853515625,2.962890625,3.123046875
0.041,-4.8447265625,3.6435546875,1.681640625
0.0415,-4.5244140625,4.32421875,0.9208984375
0.042,-3.923828125,4.9248046875,-0.2001953125
0.0425,-3.2431640625,5.4052734375,-1.28125
0.043,-2.1220703125,5.5654296875,-2.6025390625
0.0435,-0.80078125,5.4052734375,-3.68359375
0.044,0.2001953125,5.365234375,-4.4443359375
0.0445,0.8408203125,5.205078125,-5.28515625
0.045,1.76171875,5.125,-6.0458984375
0.0455,3.0029296875,3.9638671875,-6.4462890625
0.046,3.9638671875,2.7626953125,-6.486328125
0.0465,4.5244140625,1.5615234375,-6.1259765625
0.047,4.8447265625,0.720703125,-5.8056640625
0.0475,5.125,-0.2001953125,-5.60546875
0.048,5.4453125,-0.880859375,-5.28515625
0.0485,5.1650390625,-2.2822265625,-4.32421875
0.049,4.8046875,-3.4833984375,-2.802734375
0.0495,4.1640625,-4.32421875,-1.8017578125
0.05,4.00390625,-4.8447265625,-1.0009765625
0.0505,3.6435546875,-5.4853515625,0.0
0.051,2.6826171875,-5.845703125,1.28125
0.0515,1.6416015625,-6.1259765625,2.40234375
0.052,0.48046875,-6.0859375,3.36328125
0.0525,-0.400390625,-6.0458984375,4.2841796875
0.053,-1.12109375,-5.8857421875,4.96484375
0.0535,-2.0419921875,-5.8056640625,5.8857421875
0.054,-3.4033203125,-4.5244140625,6.2060546875
0.0545,-4.32421875,-3.1630859375,6.0859375
0.055,-4.8447265625,-2.08203125,5.845703125
0.0555,-5.1650390625,-1.3212890625,5.60546875
0.056,-5.4453125,-0.640625,5.3251953125
0.0565,-5.60546875,0.6005859375,4.9248046875
0.057,-5.525390625,1.681640625,3.8037109375
0.0575,-4.96484375,2.72265625,2.322265625
0.058,-4.5244140625,3.4833984375,1.44140625
0.0585,-4.244140625,4.1240234375,0.640625
0.059,-3.8837890625,4.884765625,-0.2802734375
0.0595,-2.72265625,5.0849609375,-1.6015625
0.06,-1.6015625,5.28515625,-2.72265625
0.0605,-0.80078125,5.2451171875,-3.443359375
0.061,0.0,5.2451171875,-4.3642578125
0.0615,0.880859375,5.0849609375,-5.2451171875
0.062,1.9619140625,4.64453125,-5.92578125
0.0625,3.04296875,3.5234375,-6.24609375
0.063,3.923828125,2.1220703125,-5.9658203125
0.0635,4.4443359375,1.2412109375,-5.7255859375
0.064,4.6044921875,0.560546875,-5.4453125
0.0645,5.0849609375,-0.400390625,-5.4052734375
0.065,5.0048828125,-1.44140625,-4.5244140625
0.0655,4.8447265625,-2.5625,-3.5634765625
0.066,4.32421875,-3.5234375,-2.40234375
0.0665,4.0439453125,-4.1240234375,-1.4814453125
0.067,3.8037109375,-4.9248046875,-0.80078125
0.0675,3.3232421875,-5.525390625,0.3603515625
0.068,2.2021484375,-5.765625,1.6015625
0.0685,1.201171875,-5.6455078125,2.72265625
0.069,0.3603515625,-5.8056640625,3.4833984375
0.0695,-0.4404296875,-5.845703125,4.2841796875
0.07,-1.28125,-5.8056640625,5.205078125
0.0705,-2.5625,-5.0048828125,5.7255859375
0.071,-3.5634765625,-3.8837890625,5.9658203125
0.0715,-4.404296875,-2.72265625,5.685546875
0.072,-4.6845703125,-1.681640625,5.60546875
0.0725,-5.125,-1.2412109375,5.365234375
0.073,-5.365234375,-0.2802734375,5.2451171875
0.0735,-5.3251953125,0.9609375,4.1640625
0.074,-5.0849609375,2.162109375,3.123046875
0.0745,-4.6845703125,2.8828125,2.0419921875
0.075,-4.404296875,3.603515625,1.28125
0.0755,-4.2041015625,4.404296875,0.48046875
0.076,-3.2431640625,4.8046875,-1.041015625
0.0765,-2.322265625,5.205078125,-2.08203125
0.077,-1.361328125,5.0849609375,-3.04296875
0.0775,-0.640625,5.125,-3.84375
0.078,0.3203125,5.1650390625,-4.64453125
0.0785,1.201171875,5.0849609375,-5.6455078125
0.079,2.5224609375,3.9638671875,-6.0458984375
0.0795,3.6435546875,2.6826171875,-5.9658203125
0.08,4.083984375,1.5615234375,-5.8857421875
0.0805,4.5244140625,0.7607421875,-5.8056640625
0.081,4.96484375,0.1201171875,-5.525390625
0.0815,5.0849609375,-1.041015625,-5.044921875
0.082,4.96484375,-2.1220703125,-4.0439453125
0.0825,4.5244140625,-3.203125,-2.642578125
0.083,4.1640625,-3.923828125,-1.8017578125
0.0835,3.9638671875,-4.6044921875,-1.041015625
0.084,3.68359375,-5.3251953125,0.0400390625
0.0845,2.6025390625,-5.7255859375,1.1611328125
0.085,1.4814453125,-5.8056640625,2.482421875
0.0855,0.6005859375,-5.845703125,3.3232421875
0.086,-0.2802734375,-5.8857421875,4.1640625
0.0865,-1.201171875,-5.8056640625,5.0849609375
0.087,-2.2822265625,-5.3251953125,5.8056640625
0.0875,-3.5634765625,-4.1240234375,6.166015625
0.088,-4.3642578125,-2.6826171875,5.92578125
0.0885,-4.8046875,-1.9619140625,5.5654296875
0.089,-5.125,-1.0810546875,5.4853515625
0.0895,-5.525390625,-0.2802734375,5.3251953125
0.09,-5.4052734375,1.041015625,4.244140625
0.0905,-5.2451171875,2.162109375,3.1630859375
0.091,-4.8447265625,3.04296875,2.0419921875
0.0915,-4.3642578125,3.7236328125,1.201171875
0.092,-4.00390625,4.404296875,0.2802734375
0.0925,-3.5234375,5.0849609375,-0.6806640625
0.093,-2.3623046875,5.1650390625,-2.1220703125
0.0935,-1.1611328125,5.125,-3.203125
0.094,-0.48046875,5.2451171875,-3.9638671875
0.0945,0.3603515625,5.125,-4.7646484375
0.095,1.28125,4.96484375,-5.6455078125
0.0955,2.72265625,4.083984375,-6.1259765625
0.096,3.6435546875,2.8427734375,-6.24609375
0.0965,4.32421875,1.521484375,-6.0458984375
0.097,4.564453125,0.880859375,-5.7255859375
0.0975,4.96484375,0.0400390625,-5.4853515625
0.098,5.1650390625,-1.0009765625,-5.2451171875
0.0985,5.0849609375,-2.2421875,-4.00390625
0.099,4.724609375,-3.443359375,-2.72265625
0.0995,4.2041015625,-4.0439453125,-1.681640625
0.1,3.923828125,-4.8447265625,-1.0009765625
0.1005,3.4833984375,-5.4453125,0.16015625
0.101,2.5625,-5.92578125,1.3212890625
0.1015,1.521484375,-6.1259765625,2.5224609375
0.102,0.48046875,-5.92578125,3.443359375
0.1025,-0.3603515625,-5.92578125,4.2841796875
0.103,-1.2412109375,-5.845703125,5.0849609375
0.1035,-2.08203125,-5.525390625,5.9658203125
0.104,-3.6435546875,-4.244140625,6.2060546875
0.1045,-4.5244140625,-2.8828125,6.24609375
0.105,-5.1650390625,-1.8818359375,5.8857421875
0.1055,-5.4453125,-1.0810546875,5.7255859375
0.106,-5.6455078125,-0.240234375,5.28515625
0.1065,-5.6455078125,1.041015625,4.5244140625
0.107,-5.4453125,2.2822265625,3.443359375
0.1075,-5.1650390625,3.203125,2.162109375
0.108,-4.5244140625,3.9638671875,1.201171875
0.1085,-4.2041015625,4.5244140625,0.4404296875
0.109,-3.8037109375,5.125,-0.640625
0.1095,-2.482421875,5.4052734375,-2.2421875
0.11,-1.201171875,5.4453125,-3.36328125
0.1105,-0.3203125,5.3251953125,-4.244140625
0.111,0.3603515625,5.28515625,-4.884765625
0.1115,1.44140625,4.8447265625,-5.8056640625
0.112,2.6826171875,4.3642578125,-6.4462890625
0.1125,3.84375,3.1630859375,-6.56640625
0.113,4.724609375,1.6416015625,-6.326171875
0.1135,5.0849609375,0.720703125,-6.1259765625
0.114,5.1650390625,-0.240234375,-5.765625
0.1145,5.525390625,-1.12109375,-5.4052734375
0.115,5.1650390625,-2.6025390625,-4.0439453125
0.1155,5.125,-3.7236328125,-2.962890625
0.116,4.5244140625,-4.564453125,-1.681640625
0.1165,3.9638671875,-5.1650390625,-0.640625
0.117,3.4833984375,-5.7255859375,0.3203125
0.1175,2.72265625,-6.2861328125,1.521484375
0.118,1.4013671875,-6.4462890625,2.9228515625
0.1185,0.16015625,-6.2861328125,4.1240234375
0.119,-0.6005859375,-6.1259765625,4.8046875
0.1195,-1.6015625,-6.005859375,5.60546875
0.12,-2.642578125,-5.6455078125,6.3662109375
0.1205,-4.1640625,-4.2841796875,6.88671875
0.121,-4.96484375,-3.04296875,6.6865234375
0.1215,-5.6455078125,-1.8017578125,6.166015625
0.122,-5.92578125,-0.720703125,5.8857421875
0.1225,-6.0458984375,0.3203125,5.4052734375
0.123,-6.0859375,1.5615234375,4.8046875
0.1235,-5.9658203125,2.8427734375,3.36328125
0.124,-5.3251953125,4.00390625,1.8017578125
0.1245,-4.6845703125,4.724609375,0.9208984375
0.125,-4.1640625,5.0849609375,-0.16015625
0.1255,-3.5234375,5.60546875,-1.2412109375
0.126,-2.162109375,5.9658203125,-2.8828125
0.1265,-1.0009765625,5.9658203125,-4.1640625
0.127,0.4404296875,5.5654296875,-5.044921875
0.1275,1.12109375,5.5654296875,-5.60546875
0.128,1.9619140625,5.044921875,-6.2861328125
0.1285,3.0830078125,4.5244140625,-7.0869140625
0.129,4.4443359375,2.802734375,-7.20703125
0.1295,5.2451171875,1.44140625,-6.7666015625
0.13,5.60546875,0.3603515625,-6.3662109375
0.1305,5.6455078125,-0.6005859375,-5.92578125
0.131,5.8056640625,-1.7216796875,-5.4052734375
0.1315,5.765625,-2.8828125,-4.2841796875
0.132,5.365234375,-4.2041015625,-2.8427734375
0.1325,4.8046875,-5.125,-1.5615234375
0.133,4.00390625,-5.685546875,-0.400390625
0.1335,3.4833984375,-6.0859375,0.5205078125
0.134,2.9228515625,-6.7265625,1.5615234375
0.1345,1.361328125,-6.6865234375,3.2431640625
0.135,-0.16015625,-6.486328125,4.564453125
0.1355,-1.1611328125,-6.3662109375,5.28515625
0.136,-1.7216796875,-6.1259765625,5.845703125
0.1365,-2.7626953125,-5.60546875,6.486328125
0.137,-4.2041015625,-4.8447265625,7.1669921875
0.1375,-5.2451171875,-3.203125,7.0869140625
0.138,-5.845703125,-1.7216796875,6.6064453125
0.1385,-6.1259765625,-0.640625,6.1259765625
0.139,-6.326171875,0.16015625,5.685546875
0.1395,-6.3662109375,1.1611328125,5.044921875
0.14,-6.0458984375,2.72265625,3.6435546875
0.1405,-5.685546875,3.8037109375,2.2421875
0.141,-5.0048828125,4.64453125,1.041015625
0.1415,-4.404296875,5.1650390625,0.080078125
0.142,-3.7236328125,5.5654296875,-0.9609375
0.1425,-2.7626953125,6.0458984375,-2.2421875
0.143,-1.4013671875,5.92578125,-3.8037109375
0.1435,0.1201171875,5.7255859375,-4.96484375
0.144,0.880859375,5.6455078125,-5.3251953125
0.1445,1.7216796875,5.4453125,-6.0859375
0.145,2.5224609375,4.8046875,-6.806640625
0.1455,4.2041015625,3.68359375,-7.0869140625
0.146,4.9248046875,2.2021484375,-7.0869140625
0.1465,5.4853515625,0.720703125,-6.6064453125
0.147,5.60546875,-0.2001953125,-5.9658203125
0.1475,5.7255859375,-1.2412109375,-5.6455078125
0.148,5.9658203125,-2.2021484375,-5.0849609375
0.1485,5.4853515625,-3.763671875,-3.5234375
0.149,5.0048828125,-4.8447265625,-1.9619140625
0.1495,4.484375,-5.4453125,-0.8408203125
0.15,3.8837890625,-6.005859375,0.1201171875
0.1505,3.2431640625,-6.56640625,1.12109375
0.151,1.9619140625,-6.6865234375,2.6826171875
0.1515,0.6005859375,-6.6865234375,4.0439453125
0.152,-0.6806640625,-6.40625,5.0048828125
0.1525,-1.28125,-6.166015625,5.4853515625
0.153,-2.40234375,-6.0859375,6.24609375
0.1535,-3.36328125,-5.28515625,7.2470703125
0.154,-4.7646484375,-3.8037109375,7.0869140625
0.1545,-5.6455078125,-2.2021484375,6.88671875
0.155,-6.005859375,-1.0009765625,6.326171875
0.1555,-6.166015625,-0.16015625,6.005859375
0.156,-6.326171875,0.880859375,5.4052734375
0.1565,-6.2861328125,2.162109375,4.2041015625
0.157,-5.92578125,3.5234375,2.9228515625
0.1575,-5.4052734375,4.5244140625,1.4013671875
0.158,-4.64453125,5.044921875,0.3203125
0.1585,-4.1240234375,5.4853515625,-0.640625
0.159,-3.443359375,6.005859375,-1.7216796875
0.1595,-1.681640625,6.1259765625,-3.443359375
0.16,-0.3603515625,6.0859375,-4.5244140625
0.1605,0.7607421875,5.685546875,-5.525390625
0.161,1.4814453125,5.4052734375,-6.0458984375
0.1615,2.6025390625,5.044921875,-6.7265625
0.162,3.6435546875,4.00390625,-7.3671875
0.1625,4.8447265625,2.5625,-7.4072265625
0.163,5.5654296875,0.9208984375,-6.88671875
0.1635,5.765625,0.0,-6.40625
0.164,5.8056640625,-0.9208984375,-5.8056640625
0.1645,6.0458984375,-1.841796875,-5.4453125
0.165,5.60546875,-3.443359375,-3.7236328125
0.1655,5.365234375,-4.5244140625,-2.4423828125
0.166,4.484375,-5.3251953125,-1.12109375
0.1665,3.8837890625,-5.765625,0.0
0.167,3.2431640625,-6.2861328125,1.0009765625
0.1675,2.482421875,-6.7666015625,2.08203125
0.168,1.0009765625,-6.7666015625,3.5234375
0.1685,-0.48046875,-6.56640625,4.6044921875
0.169,-1.041015625,-6.3662109375,5.2451171875
0.1695,-2.0419921875,-6.0458984375,5.9658203125
0.17,-3.203125,-5.6455078125,6.7666015625
0.1705,-4.564453125,-4.32421875,7.046875
0.171,-5.28515625,-2.9228515625,6.88671875
0.1715,-5.8857421875,-1.521484375,6.40625
0.172,-6.0458984375,-0.640625,5.92578125
0.1725,-6.0458984375,0.48046875,5.4853515625
0.173,-6.2861328125,1.4013671875,5.044921875
0.1735,-5.92578125,2.642578125,3.443359375
0.174,-5.2451171875,3.84375,1.921875
0.1745,-4.724609375,4.4443359375,0.880859375
0.175,-4.2041015625,5.0849609375,0.16015625
0.1755,-3.6435546875,5.5654296875,-1.0009765625
0.176,-2.4423828125,5.8056640625,-2.5224609375
0.1765,-1.201171875,5.8857421875,-3.6435546875
0.177,0.1201171875,5.4453125,-4.6845703125
0.1775,0.9208984375,5.4052734375,-5.365234375
0.178,1.4814453125,5.1650390625,-5.92578125
0.1785,2.40234375,4.9248046875,-6.7265625
0.179,3.9638671875,3.443359375,-6.8466796875
0.1795,4.8447265625,1.9619140625,-6.7265625
0.18,5.28515625,0.80078125,-6.3662109375
0.1805,5.5654296875,0.080078125,-6.0859375
0.181,5.685546875,-0.9208984375,-5.4853515625
0.1815,5.5654296875,-2.2822265625,-4.7646484375
0.182,5.4052734375,-3.2431640625,-3.4033203125
0.1825,4.9248046875,-4.4443359375,-2.1220703125
0.183,4.2041015625,-5.125,-1.12109375
0.1835,3.8037109375,-5.6455078125,0.0
0.184,3.36328125,-6.326171875,0.80078125
0.1845,1.9619140625,-6.40625,2.4423828125
0.185,0.560546875,-6.3662109375,3.763671875
0.1855,-0.560546875,-6.2060546875,4.5244140625
0.186,-1.28125,-6.166015625,5.205078125
0.1865,-2.2421875,-5.845703125,6.0458984375
0.187,-3.283203125,-5.205078125,6.6064453125
0.1875,-4.484375,-3.84375,6.7666015625
0.188,-5.28515625,-2.2822265625,6.3662109375
0.1885,-5.60546875,-1.28125,5.8857421875
0.189,-5.845703125,-0.3603515625,5.845703125
0.1895,-5.9658203125,0.48046875,5.2451171875
0.19,-5.92578125,1.76171875,3.9638671875
0.1905,-5.6455078125,3.04296875,2.8828125
0.191,-4.9248046875,3.923828125,1.6416015625
0.1915,-4.4443359375,4.484375,0.640625
0.192,-3.923828125,5.044921875,-0.3203125
0.1925,-3.2431640625,5.60546875,-1.3212890625
0.193,-1.8017578125,5.6455078125,-2.8828125
0.1935,-0.5205078125,5.4853515625,-4.00390625
0.194,0.1201171875,5.3251953125,-4.564453125
0.1945,0.9208984375,5.3251953125,-5.205078125
0.195,1.921875,4.96484375,-6.166015625
0.1955,3.203125,3.84375,-6.56640625
0.196,4.1640625,2.642578125,-6.56640625
0.1965,4.7646484375,1.2412109375,-6.24609375
0.197,5.044921875,0.5205078125,-5.765625
0.1975,5.205078125,-0.6005859375,-5.6455078125
0.198,5.4853515625,-1.1611328125,-5.1650390625
0.1985,5.28515625,-2.5224609375,-4.00390625
0.199,4.7646484375,-3.7236328125,-2.642578125
0.1995,4.2841796875,-4.4443359375,-1.5615234375
0.2,3.923828125,-5.0048828125,-0.640625
0.2005,3.443359375,-5.6455078125,0.3203125
0.201,2.5224609375,-6.2060546875,1.4013671875
0.2015,1.28125,-6.2861328125,2.6826171875
0.202,0.3603515625,-5.8056640625,3.6435546875
0.2025,-0.400390625,-6.0458984375,4.1640625
0.203,-1.28125,-5.8857421875,5.1650390625
0.2035,-2.2021484375,-5.765625,6.005859375
0.204,-3.5634765625,-4.4443359375,6.2861328125
0.2045,-4.484375,-3.0830078125,6.2861328125
0.205,-5.0048828125,-1.8818359375,5.9658203125
0.2055,-5.4453125,-1.2412109375,5.765625
0.206,-5.4853515625,-0.3203125,5.4052734375
0.2065,-5.6455078125,0.640625,4.6044921875
0.207,-5.4853515625,1.841796875,3.763671875
0.2075,-5.0048828125,2.8828125,2.40234375
0.208,-4.564453125,3.6435546875,1.5615234375
0.2085,-4.2841796875,4.2841796875,0.6806640625
0.209,-4.083984375,4.884765625,-0.2802734375
0.2095,-2.8828125,5.2451171875,-1.5615234375
0.21,-1.6416015625,5.125,-2.8828125
0.2105,-0.80078125,5.205078125,-3.5634765625
0.211,0.0400390625,5.205078125,-4.4443359375
0.2115,0.9609375,5.0849609375,-5.28515625
0.212,1.9619140625,4.724609375,-6.005859375
0.2125,3.0830078125,3.6435546875,-6.1259765625
0.213,4.00390625,2.2822265625,-6.0458984375
0.2135,4.404296875,1.3212890625,-5.685546875
0.214,4.9248046875,0.560546875,-5.8056640625
0.2145,5.0849609375,-0.4404296875,-5.60546875
0.215,5.044921875,-1.4814453125,-4.5244140625
0.2155,4.8046875,-2.6025390625,-3.5634765625
0.216,4.4443359375,-3.4033203125,-2.322265625
0.2165,4.00390625,-4.32421875,-1.4814453125
0.217,3.68359375,-5.0048828125,-0.640625
0.2175,3.36328125,-5.4853515625,0.400390625
0.218,2.40234375,-5.6455078125,1.6015625
0.2185,1.12109375,-5.8056640625,2.5625
0.219,0.3603515625,-5.8056640625,3.5234375
0.2195,-0.48046875,-5.8857421875,4.32421875
0.22,-1.361328125,-5.845703125,5.2451171875
0.2205,-2.6025390625,-4.884765625,5.8857421875
0.221,-3.7236328125,-3.8837890625,6.0859375
0.2215,-4.244140625,-2.642578125,5.60546875
0.222,-4.7646484375,-1.8818359375,5.4453125
0.2225,-5.1650390625,-1.041015625,5.5654296875
0.223,-5.4853515625,-0.2802734375,5.28515625
0.2235,-5.4052734375,1.0009765625,4.2841796875
0.224,-5.044921875,2.1220703125,3.0029296875
0.2245,-4.7646484375,2.8828125,2.08203125
0.225,-4.5244140625,3.5634765625,1.28125
0.2255,-4.0439453125,4.484375,0.3203125
0.226,-3.4033203125,4.8046875,-0.9208984375
0.2265,-2.40234375,5.2451171875,-1.921875
0.227,-1.28125,5.044921875,-3.04296875
0.2275,-0.560546875,5.125,-3.84375
0.228,0.3603515625,5.125,-4.6845703125
