wavelength,x,y,z
0.0,10.255004882812,10.495239257812,-20.254760742188
0.0005,5.0899658203125,14.379028320312,-19.213745117188
0.001,0.6856689453125,16.781372070312,-17.371948242188
0.0015,-2.9578857421875,18.222778320312,-15.690307617188
0.002,-6.0809326171875,19.423950195312,-13.768432617188
0.0025,-9.1239013671875,19.263793945312,-10.685424804688
0.003,-12.607299804688,18.903442382812,-7.0018310546875
0.0035,-15.810424804688,18.062622070312,-3.0780029296875
0.004,-18.252807617188,16.020629882812,1.4464111328125
0.0045,-19.494018554688,14.018676757812,4.5694580078125
0.005,-20.134643554688,11.536254882812,7.6925048828125
0.0055,-20.414916992188,8.8135986328125,10.615356445312
0.006,-19.894409179688,4.4493408203125,14.459106445312
0.0065,-18.693237304688,0.6856689453125,17.101684570312
0.007,-16.971557617188,-2.9578857421875,19.023559570312
0.0075,-15.089721679688,-6.0408935546875,20.224731445312
0.008,-11.886596679688,-9.0037841796875,20.184692382812
0.0085,-8.5633544921875,-12.327026367188,20.224731445312
0.009,-3.7987060546875,-15.770385742188,19.143676757812
0.0095,1.1260986328125,-18.092651367188,16.701293945312
0.01,4.2091064453125,-19.133666992188,15.059692382812
0.0105,7.2921142578125,-19.854370117188,12.857543945312
0.011,10.415161132812,-19.734252929688,9.8145751953125
0.0115,14.138793945312,-18.933471679688,5.4102783203125
0.012,16.981567382812,-17.652221679688,1.3663330078125
0.0125,19.143676757812,-15.650268554688,-2.8377685546875
0.013,20.024536132812,-13.488159179688,-5.7606201171875
0.0135,20.344848632812,-10.525268554688,-9.0037841796875
0.014,20.424926757812,-7.4822998046875,-12.126831054688
0.0145,19.824340820312,-3.3983154296875,-15.570190429688
0.015,18.062622070312,0.7657470703125,-17.972534179688
0.0155,16.180786132812,3.9688720703125,-19.333862304688
0.016,14.098754882812,6.9718017578125,-20.414916992188
0.0165,10.895629882812,9.9346923828125,-20.214721679688
0.017,6.4512939453125,13.498168945312,-19.614135742188
0.0175,2.2872314453125,16.340942382812,-18.573120117188
0.018,-2.3172607421875,18.543090820312,-16.170776367188
0.0185,-5.2801513671875,19.223754882812,-14.288940429688
0.019,-8.3231201171875,19.544067382812,-11.686401367188
0.0195,-11.526245117188,19.463989257812,-8.5233154296875
0.02,-15.129760742188,18.503051757812,-4.1590576171875
0.0205,-17.692260742188,16.741333007812,0.1651611328125
0.021,-19.373901367188,14.819458007812,3.7286376953125
0.0215,-20.214721679688,12.657348632812,6.6915283203125
0.022,-20.334838867188,9.5343017578125,9.8546142578125
0.0225,-20.054565429688,5.8907470703125,13.257934570312
0.023,-19.494018554688,2.2071533203125,16.300903320312
0.0235,-17.572143554688,-1.9569091796875,18.583129882812
0.024,-15.530151367188,-4.8397216796875,19.584106445312
0.0245,-13.408081054688,-7.8426513671875,20.424926757812
0.025,-10.004760742188,-10.965698242188,20.344848632812
0.0255,-5.2000732421875,-14.569213867188,19.223754882812
0.026,-0.9158935546875,-17.051635742188,17.622192382812
0.0265,3.1680908203125,-18.813354492188,15.660278320312
0.027,6.0509033203125,-19.453979492188,13.618286132812
0.0275,9.1339111328125,-19.494018554688,10.735473632812
0.028,12.577270507812,-19.213745117188,7.1719970703125
0.0285,15.860473632812,-18.212768554688,2.9678955078125
0.029,18.222778320312,-16.170776367188,-1.4364013671875
0.0295,19.544067382812,-14.288940429688,-4.5194091796875
0.03,20.264770507812,-11.846557617188,-7.6424560546875
0.0305,20.304809570312,-8.6834716796875,-10.885620117188
0.031,19.824340820312,-4.7996826171875,-14.248901367188
0.0315,18.823364257812,-1.1160888671875,-16.971557617188
0.032,16.941528320312,2.9278564453125,-18.933471679688
0.0325,14.819458007812,5.7305908203125,-19.814331054688
0.033,12.176879882812,8.6934814453125,-20.254760742188
0.0335,8.4532470703125,12.176879882812,-20.214721679688
0.034,3.6885986328125,15.500122070312,-18.933471679688
0.0345,-0.8358154296875,17.662231445312,-16.811401367188
0.035,-4.1990966796875,19.063598632812,-15.129760742188
0.0355,-7.2020263671875,19.584106445312,-12.807495117188
0.036,-10.325073242188,19.504028320312,-9.7244873046875
0.0365,-13.968627929688,18.943481445312,-5.7205810546875
0.037,-16.931518554688,17.622192382812,-1.4764404296875
0.0375,-19.093627929688,15.500122070312,2.8077392578125
0.038,-20.014526367188,13.418090820312,5.6905517578125
0.0385,-20.535034179688,10.735473632812,8.9337158203125
0.039,-20.494995117188,7.2120361328125,12.337036132812
0.0395,-19.854370117188,3.3282470703125,15.580200195312
0.04,-18.332885742188,-0.6356201171875,17.942504882812
0.0405,-16.531127929688,-4.2791748046875,19.864379882812
0.041,-14.248901367188,-7.0819091796875,20.424926757812
0.0415,-11.205932617188,-10.084838867188,20.505004882812
0.042,-6.9617919921875,-13.648315429688,20.064575195312
0.0425,-2.2371826171875,-16.691284179688,18.583129882812
0.043,2.2471923828125,-18.533081054688,16.260864257812
0.0435,5.2501220703125,-19.534057617188,14.459106445312
0.044,8.3331298828125,-19.894409179688,11.896606445312
0.0445,11.696411132812,-19.534057617188,8.3331298828125
0.045,15.019653320312,-18.773315429688,4.4093017578125
0.0455,17.742309570312,-17.091674804688,0.0850830078125
0.046,19.704223632812,-15.009643554688,-3.9188232421875
0.0465,20.184692382812,-12.687377929688,-6.7215576171875
0.047,20.545043945312,-9.8846435546875,-9.8846435546875
0.0475,20.304809570312,-5.9608154296875,-13.448120117188
0.048,19.504028320312,-2.2371826171875,-16.491088867188
0.0485,17.502075195312,1.7667236328125,-18.453002929688
0.049,15.700317382812,4.9698486328125,-19.934448242188
0.0495,13.177856445312,7.8927001953125,-20.454956054688
0.05,9.7344970703125,11.055786132812,-20.294799804688
0.0505,5.4102783203125,14.419067382812,-19.534057617188
0.051,0.7657470703125,17.181762695312,-17.812377929688
0.0515,-3.4383544921875,18.903442382812,-15.650268554688
0.052,-6.1209716796875,19.383911132812,-13.648315429688
0.0525,-9.2440185546875,19.744262695312,-11.045776367188
0.053,-12.927612304688,19.183715820312,-6.9217529296875
0.0535,-15.930541992188,18.142700195312,-3.0379638671875
0.054,-18.252807617188,16.300903320312,1.2061767578125
0.0545,-19.934448242188,14.258911132812,4.7696533203125
0.055,-20.294799804688,11.696411132812,7.6925048828125
0.0555,-20.535034179688,8.6934814453125,10.895629882812
0.056,-20.134643554688,4.7696533203125,14.379028320312
0.0565,-19.093627929688,0.8458251953125,17.301879882812
0.057,-17.051635742188,-3.0780029296875,19.103637695312
0.0575,-15.129760742188,-5.9207763671875,20.104614257812
0.058,-12.567260742188,-8.8836669921875,20.665161132812
0.0585,-8.3631591796875,-12.487182617188,20.264770507812
0.059,-4.1590576171875,-15.410034179688,19.183715820312
0.0595,0.4854736328125,-17.772338867188,17.141723632812
0.06,4.2891845703125,-19.373901367188,15.219848632812
0.0605,7.0118408203125,-19.574096679688,12.857543945312
0.061,10.054809570312,-19.854370117188,10.214965820312
0.0615,13.938598632812,-19.173706054688,5.8507080078125
0.062,16.821411132812,-17.732299804688,1.6065673828125
0.0625,18.863403320312,-15.770385742188,-2.3572998046875
0.063,20.144653320312,-13.808471679688,-5.5203857421875
0.0635,20.424926757812,-11.045776367188,-8.6033935546875
0.064,20.424926757812,-7.4422607421875,-12.206909179688
0.0645,19.864379882812,-3.9188232421875,-15.169799804688
0.065,18.463012695312,0.2052001953125,-17.852416992188
0.0655,16.421020507812,3.8887939453125,-19.574096679688
0.066,14.098754882812,6.6514892578125,-20.054565429688
0.0665,11.616333007812,9.6143798828125,-20.575073242188
0.067,6.6915283203125,13.578247070312,-19.894409179688
0.0675,2.5274658203125,16.300903320312,-18.573120117188
0.068,-1.7967529296875,18.182739257812,-16.451049804688
0.0685,-5.2000732421875,19.624145507812,-14.689331054688
0.069,-8.1629638671875,19.584106445312,-11.966674804688
0.0695,-11.406127929688,19.544067382812,-8.7235107421875
0.07,-15.009643554688,18.943481445312,-4.7596435546875
0.0705,-17.812377929688,17.141723632812,-0.1951904296875
0.071,-19.574096679688,15.099731445312,3.6085205078125
0.0715,-20.454956054688,12.897583007812,6.6514892578125
0.072,-20.855346679688,10.214965820312,9.7344970703125
0.0725,-20.535034179688,5.8507080078125,13.738403320312
0.073,-19.814331054688,2.3272705078125,16.541137695312
0.0735,-18.092651367188,-1.6766357421875,18.743286132812
0.074,-16.170776367188,-5.2000732421875,20.464965820312
0.0745,-13.408081054688,-8.0028076171875,20.625122070312
0.075,-10.525268554688,-11.085815429688,20.945434570312
0.0755,-5.4803466796875,-15.009643554688,19.984497070312
0.076,-0.7156982421875,-17.652221679688,18.102661132812
0.0765,3.1680908203125,-19.173706054688,16.060668945312
0.077,6.4112548828125,-20.254760742188,14.098754882812
0.0775,9.5343017578125,-20.254760742188,11.215942382812
0.078,13.297973632812,-19.694213867188,6.9718017578125
0.0785,16.380981445312,-18.893432617188,3.1680908203125
0.079,19.023559570312,-16.851440429688,-1.4364013671875
0.0795,20.545043945312,-14.769409179688,-5.0399169921875
0.08,20.945434570312,-12.046752929688,-8.0828857421875
0.0805,21.305786132812,-9.2840576171875,-11.245971679688
0.081,20.745239257812,-4.7196044921875,-15.249877929688
0.0815,19.504028320312,-0.7957763671875,-17.972534179688
0.082,17.502075195312,3.0479736328125,-19.694213867188
0.0825,15.620239257812,6.3712158203125,-21.215698242188
0.083,12.296997070312,9.4542236328125,-21.095581054688
0.0835,8.4532470703125,12.937622070312,-21.015502929688
0.084,4.0089111328125,16.300903320312,-20.014526367188
0.0845,-1.1961669921875,18.783325195312,-17.652221679688
0.085,-4.6795654296875,20.024536132812,-15.650268554688
0.0855,-7.8026123046875,20.665161132812,-13.207885742188
0.086,-11.005737304688,20.785278320312,-10.405151367188
0.0865,-15.129760742188,19.704223632812,-5.4002685546875
0.087,-17.972534179688,18.382934570312,-1.2362060546875
0.0875,-20.134643554688,16.260864257812,3.0079345703125
0.088,-21.455932617188,14.058715820312,6.4112548828125
0.0885,-21.495971679688,10.815551757812,9.6544189453125
0.089,-21.576049804688,7.5323486328125,13.017700195312
0.0895,-20.975463867188,3.3282470703125,16.581176757812
0.09,-19.213745117188,-1.1160888671875,19.263793945312
0.0905,-16.971557617188,-4.6395263671875,20.625122070312
0.091,-14.889526367188,-7.7625732421875,21.746215820312
0.0915,-11.646362304688,-10.845581054688,21.746215820312
0.092,-6.6014404296875,-14.769409179688,20.825317382812
0.0925,-2.3172607421875,-17.572143554688,19.544067382812
0.093,2.5675048828125,-19.734252929688,17.141723632812
0.0935,6.0509033203125,-20.775268554688,14.979614257812
0.094,9.2139892578125,-20.775268554688,11.976684570312
0.0945,12.377075195312,-20.815307617188,9.0137939453125
0.095,16.300903320312,-19.734252929688,4.0889892578125
0.0955,19.063598632812,-17.692260742188,-0.6356201171875
0.096,20.665161132812,-15.610229492188,-4.2791748046875
0.0965,21.626098632812,-13.328002929688,-7.5623779296875
0.097,21.505981445312,-9.9647216796875,-10.765502929688
0.0975,21.185668945312,-6.0008544921875,-14.409057617188
0.098,20.464965820312,-2.2371826171875,-17.331909179688
0.0985,18.463012695312,2.2471923828125,-19.814331054688
0.099,16.140747070312,5.5704345703125,-20.855346679688
0.0995,13.458129882812,8.6134033203125,-21.375854492188
0.1,10.495239257812,11.656372070312,-21.576049804688
0.1005,4.9298095703125,15.660278320312,-20.254760742188
0.101,0.5255126953125,18.142700195312,-18.533081054688
0.1015,-3.6785888671875,19.864379882812,-16.411010742188
0.102,-6.9217529296875,20.785278320312,-14.288940429688
0.1025,-10.244995117188,20.545043945312,-10.885620117188
0.103,-13.648315429688,20.264770507812,-7.3221435546875
0.1035,-17.051635742188,19.223754882812,-2.9578857421875
0.104,-19.654174804688,16.901489257812,1.9268798828125
0.1045,-20.855346679688,14.739379882812,5.1700439453125
0.105,-21.616088867188,12.176879882812,8.4532470703125
0.1055,-21.656127929688,9.0137939453125,11.576293945312
0.106,-21.015502929688,4.4893798828125,15.500122070312
0.1065,-19.854370117188,0.7657470703125,18.182739257812
0.107,-17.972534179688,-3.3582763671875,20.304809570312
0.1075,-15.730346679688,-6.5614013671875,21.385864257812
0.108,-12.527221679688,-9.6844482421875,21.425903320312
0.1085,-9.2440185546875,-12.927612304688,21.505981445312
0.109,-3.8787841796875,-16.651245117188,20.144653320312
0.1095,1.0460205078125,-18.933471679688,17.742309570312
0.11,4.4893798828125,-20.214721679688,15.820434570312
0.1105,7.7325439453125,-21.015502929688,13.578247070312
0.111,11.015747070312,-20.695190429688,10.174926757812
0.1115,14.779418945312,-19.934448242188,5.7305908203125
0.112,17.862426757812,-18.693237304688,1.6065673828125
0.1125,20.184692382812,-16.411010742188,-3.0379638671875
0.113,21.065551757812,-14.328979492188,-6.1209716796875
0.1135,21.465942382812,-11.245971679688,-9.4842529296875
0.114,21.465942382812,-7.8826904296875,-12.727416992188
0.1145,20.745239257812,-3.5584716796875,-16.370971679688
0.115,19.023559570312,0.6856689453125,-18.773315429688
0.1155,17.021606445312,4.2891845703125,-20.494995117188
0.116,14.819458007812,7.4122314453125,-21.495971679688
0.1165,11.336059570312,10.535278320312,-21.295776367188
0.117,7.1719970703125,14.138793945312,-20.895385742188
0.1175,2.4874267578125,17.341918945312,-19.614135742188
0.118,-2.5574951171875,19.504028320312,-17.051635742188
0.1185,-5.6405029296875,20.344848632812,-15.089721679688
0.119,-8.9637451171875,20.865356445312,-12.487182617188
0.1195,-12.327026367188,20.625122070312,-8.9637451171875
0.12,-16.050659179688,19.584106445312,-4.3192138671875
0.1205,-18.853393554688,17.902465820312,0.1251220703125
0.121,-20.895385742188,15.660278320312,4.2891845703125
0.1215,-21.576049804688,13.257934570312,7.3321533203125
0.122,-21.776245117188,9.9346923828125,10.815551757812
0.1225,-21.536010742188,6.2110595703125,14.338989257812
0.123,-20.775268554688,2.1270751953125,17.622192382812
0.1235,-18.613159179688,-2.3572998046875,19.944458007812
0.124,-16.531127929688,-5.6405029296875,21.185668945312
0.1245,-14.128784179688,-8.7235107421875,22.066528320312
0.125,-10.285034179688,-12.086791992188,21.746215820312
0.1255,-5.4803466796875,-15.690307617188,20.665161132812
0.126,-0.7957763671875,-18.453002929688,19.023559570312
0.1265,3.9288330078125,-20.454956054688,16.581176757812
0.127,6.8917236328125,-20.935424804688,14.298950195312
0.1275,10.295043945312,-21.135620117188,11.296020507812
0.128,13.938598632812,-20.655151367188,7.3721923828125
0.1285,17.341918945312,-19.494018554688,2.8477783203125
0.129,19.864379882812,-17.331909179688,-1.7567138671875
0.1295,21.385864257812,-15.169799804688,-5.4803466796875
0.13,21.906372070312,-12.447143554688,-8.6834716796875
0.1305,21.906372070312,-8.9237060546875,-12.126831054688
0.131,21.305786132812,-4.8797607421875,-15.570190429688
0.1315,20.224731445312,-0.7957763671875,-18.573120117188
0.132,17.942504882812,3.5684814453125,-20.655151367188
0.1325,15.620239257812,6.5714111328125,-21.415893554688
0.133,12.857543945312,9.8145751953125,-22.016479492188
0.1335,8.6934814453125,13.418090820312,-21.656127929688
0.134,3.8087158203125,16.741333007812,-20.294799804688
0.1345,-0.9959716796875,19.063598632812,-18.132690429688
0.135,-4.9998779296875,20.785278320312,-16.050659179688
0.1355,-8.0028076171875,21.065551757812,-13.528198242188
0.136,-11.406127929688,21.025512695312,-10.325073242188
0.1365,-15.129760742188,20.344848632812,-6.0008544921875
0.137,-18.252807617188,18.783325195312,-1.4364013671875
0.1375,-20.494995117188,16.461059570312,3.0880126953125
0.138,-21.616088867188,14.218872070312,6.3712158203125
0.1385,-22.056518554688,11.336059570312,9.7344970703125
0.139,-21.936401367188,7.4923095703125,13.418090820312
0.1395,-21.135620117188,3.4483642578125,16.661254882812
0.14,-19.574096679688,-0.7156982421875,19.263793945312
0.1405,-17.411987304688,-4.7996826171875,21.265747070312
0.141,-14.889526367188,-7.7225341796875,21.706176757812
0.1415,-11.926635742188,-10.845581054688,22.026489257812
0.142,-7.3621826171875,-14.689331054688,21.465942382812
0.1425,-2.3572998046875,-17.732299804688,19.784301757812
0.143,2.2471923828125,-19.654174804688,17.301879882812
0.1435,5.8106689453125,-20.935424804688,15.380004882812
0.144,8.9737548828125,-21.135620117188,12.577270507812
0.1445,12.417114257812,-20.815307617188,8.9737548828125
0.145,15.940551757812,-20.094604492188,4.8096923828125
0.1455,18.903442382812,-18.252807617188,0.0850830078125
0.146,20.865356445312,-15.890502929688,-4.1990966796875
0.1465,21.586059570312,-13.448120117188,-7.2020263671875
0.147,21.906372070312,-10.565307617188,-10.525268554688
0.1475,21.546020507812,-6.3211669921875,-14.369018554688
0.148,20.665161132812,-2.4373779296875,-17.371948242188
0.1485,18.743286132812,1.7266845703125,-19.534057617188
0.149,16.701293945312,5.4102783203125,-21.295776367188
0.1495,13.898559570312,8.3731689453125,-21.536010742188
0.15,10.535278320312,11.576293945312,-21.576049804688
0.1505,5.8907470703125,15.299926757812,-20.815307617188
0.151,0.9259033203125,18.182739257812,-18.973510742188
0.1515,-3.4383544921875,19.864379882812,-16.611206054688
0.152,-6.5213623046875,20.705200195312,-14.569213867188
0.1525,-9.8045654296875,20.945434570312,-11.726440429688
0.153,-13.528198242188,20.224731445312,-7.4422607421875
0.1535,-16.651245117188,19.303833007812,-3.5584716796875
0.154,-19.293823242188,17.301879882812,1.1260986328125
0.1545,-21.095581054688,15.019653320312,4.9698486328125
0.155,-21.415893554688,12.417114257812,8.0128173828125
0.1555,-21.776245117188,9.3741455078125,11.376098632812
0.156,-21.215698242188,5.0499267578125,15.219848632812
0.1565,-20.134643554688,1.0059814453125,18.102661132812
0.157,-17.972534179688,-2.9578857421875,19.944458007812
0.1575,-16.050659179688,-6.2010498046875,21.345825195312
0.158,-13.167846679688,-9.2840576171875,21.666137695312
0.1585,-9.1239013671875,-12.807495117188,21.265747070312
0.159,-4.7596435546875,-16.010620117188,20.304809570312
0.1595,0.3653564453125,-18.573120117188,18.102661132812
0.16,4.3292236328125,-20.174682617188,15.940551757812
0.1605,7.2120361328125,-20.535034179688,13.578247070312
0.161,10.375122070312,-20.815307617188,10.895629882812
0.1615,14.379028320312,-20.014526367188,6.0909423828125
0.162,17.301879882812,-18.573120117188,1.9669189453125
0.1625,19.463989257812,-16.571166992188,-2.1971435546875
0.163,20.985473632812,-14.449096679688,-5.7606201171875
0.1635,21.145629882812,-11.526245117188,-8.8035888671875
0.164,21.265747070312,-8.0828857421875,-12.327026367188
0.1645,20.705200195312,-4.2391357421875,-15.610229492188
0.165,19.223754882812,0.0450439453125,-18.412963867188
0.1655,17.021606445312,3.8487548828125,-20.014526367188
0.166,14.859497070312,6.6915283203125,-20.855346679688
0.1665,12.176879882812,9.7344970703125,-21.295776367188
0.167,7.2520751953125,13.738403320312,-20.575073242188
0.1675,3.1680908203125,16.461059570312,-19.373901367188
0.168,-1.5565185546875,18.623168945312,-17.171752929688
0.1685,-5.1199951171875,20.024536132812,-15.249877929688
0.169,-8.0828857421875,20.024536132812,-12.487182617188
0.1695,-11.205932617188,20.184692382812,-9.6844482421875
0.17,-15.089721679688,19.423950195312,-5.1199951171875
0.1705,-17.892456054688,17.622192382812,-0.6356201171875
0.171,-19.694213867188,15.580200195312,3.2081298828125
0.1715,-20.815307617188,13.418090820312,6.4512939453125
0.172,-21.095581054688,10.535278320312,9.5743408203125
0.1725,-20.895385742188,6.4512939453125,13.538208007812
0.173,-20.254760742188,2.9678955078125,16.300903320312
0.1735,-18.573120117188,-1.2362060546875,18.783325195312
0.174,-16.611206054688,-4.8397216796875,20.424926757812
0.1745,-13.968627929688,-7.5623779296875,20.705200195312
0.175,-11.366088867188,-10.525268554688,21.145629882812
0.1755,-6.1209716796875,-14.569213867188,20.184692382812
0.176,-1.5965576171875,-17.131713867188,18.422973632812
0.1765,2.4473876953125,-18.893432617188,16.380981445312
0.177,5.7706298828125,-20.054565429688,14.499145507812
0.1775,8.8536376953125,-19.974487304688,11.456176757812
0.178,12.216918945312,-19.614135742188,7.9327392578125
