wavelength,x,y,z
0.0,3.733642578125,-19.689208984375,15.905517578125
0.0005,6.376220703125,-20.329833984375,14.103759765625
0.001,9.098876953125,-20.249755859375,11.501220703125
0.0015,13.102783203125,-19.328857421875,6.776611328125
0.002,16.185791015625,-18.247802734375,2.812744140625
0.0025,19.148681640625,-17.046630859375,-1.351318359375
0.003,20.710205078125,-15.405029296875,-4.434326171875
0.0035,20.469970703125,-12.682373046875,-6.996826171875
0.004,20.349853515625,-9.439208984375,-10.119873046875
0.0045,19.509033203125,-4.674560546875,-14.083740234375
0.005,18.387939453125,-0.310302734375,-17.366943359375
0.0055,17.066650390625,3.093017578125,-19.569091796875
0.006,15.264892578125,6.015869140625,-20.570068359375
0.0065,12.261962890625,8.738525390625,-20.449951171875
0.007,7.377197265625,12.622314453125,-19.489013671875
0.0075,2.932861328125,15.825439453125,-18.407958984375
0.008,-1.911865234375,18.868408203125,-16.926513671875
0.0085,-5.074951171875,20.349853515625,-15.485107421875
0.009,-7.637451171875,20.309814453125,-13.122802734375
0.0095,-10.480224609375,20.189697265625,-10.320068359375
0.01,-14.644287109375,19.068603515625,-5.195068359375
0.0105,-17.807373046875,17.627197265625,-0.790771484375
0.011,-20.129638671875,16.385986328125,2.812744140625
0.0115,-21.130615234375,14.464111328125,5.735595703125
0.012,-20.690185546875,11.341064453125,8.418212890625
0.0125,-20.249755859375,7.297119140625,12.021728515625
0.013,-19.368896484375,3.012939453125,15.505126953125
0.0135,-18.167724609375,-1.471435546875,18.748291015625
0.014,-16.526123046875,-4.634521484375,20.389892578125
0.0145,-14.323974609375,-7.197021484375,20.710205078125
0.015,-11.281005859375,-10.039794921875,20.630126953125
0.0155,-5.635498046875,-14.243896484375,19.228759765625
0.016,-0.990966796875,-17.206787109375,17.787353515625
0.0165,3.052978515625,-19.729248046875,16.506103515625
0.017,6.135986328125,-20.890380859375,14.864501953125
0.0175,8.818603515625,-20.409912109375,11.901611328125
0.018,11.901611328125,-19.969482421875,8.538330078125
0.0185,15.665283203125,-18.848388671875,3.933837890625
0.019,18.868408203125,-17.246826171875,-0.870849609375
0.0195,20.469970703125,-15.845458984375,-3.793701171875
0.02,20.950439453125,-13.603271484375,-6.516357421875
0.0205,20.510009765625,-10.560302734375,-9.158935546875
0.021,19.709228515625,-5.675537109375,-13.282958984375
0.0215,18.708251953125,-1.791748046875,-16.245849609375
0.022,17.627197265625,2.172119140625,-19.088623046875
0.0225,15.865478515625,5.295166015625,-20.449951171875
0.023,12.982666015625,7.817626953125,-20.169677734375
0.0235,9.699462890625,10.900634765625,-20.009521484375
0.024,4.134033203125,14.904541015625,-18.648193359375
0.0245,-0.790771484375,17.947509765625,-16.966552734375
0.025,-3.873779296875,19.709228515625,-15.885498046875
0.0255,-6.716552734375,20.469970703125,-14.083740234375
0.026,-9.399169921875,19.909423828125,-11.040771484375
0.0265,-13.002685546875,19.108642578125,-6.796630859375
0.027,-16.205810546875,18.067626953125,-2.712646484375
0.0275,-19.168701171875,16.626220703125,1.651611328125
0.028,-20.249755859375,14.984619140625,4.334228515625
0.0285,-20.289794921875,12.422119140625,6.976806640625
0.029,-20.089599609375,9.339111328125,9.859619140625
0.0295,-19.168701171875,4.334228515625,13.943603515625
0.03,-18.007568359375,0.290283203125,16.946533203125
0.0305,-16.926513671875,-3.032958984375,19.148681640625
0.031,-15.244873046875,-5.835693359375,20.309814453125
0.0315,-12.041748046875,-8.358154296875,19.749267578125
0.032,-8.037841796875,-11.841552734375,19.228759765625
0.0325,-3.153076171875,-15.445068359375,18.027587890625
0.033,1.731689453125,-18.367919921875,16.426025390625
0.0335,4.494384765625,-19.689208984375,15.104736328125
0.034,7.136962890625,-20.009521484375,13.062744140625
0.0345,9.899658203125,-19.609130859375,10.219970703125
0.035,13.783447265625,-18.568115234375,5.415283203125
0.0355,16.866455078125,-17.447021484375,1.291259765625
0.036,19.268798828125,-16.205810546875,-2.312255859375
0.0365,20.069580078125,-14.364013671875,-4.874755859375
0.037,19.709228515625,-11.441162109375,-7.517333984375
0.0375,19.468994140625,-7.997802734375,-10.760498046875
0.038,18.668212890625,-3.553466796875,-14.444091796875
0.0385,17.467041015625,0.770751953125,-17.487060546875
0.039,16.145751953125,3.653564453125,-19.088623046875
0.0395,14.223876953125,6.336181640625,-19.889404296875
0.04,11.020751953125,8.978759765625,-19.448974609375
0.0405,5.935791015625,12.902587890625,-18.447998046875
0.041,1.531494140625,16.065673828125,-17.326904296875
0.0415,-2.752685546875,18.748291015625,-16.005615234375
0.042,-5.435302734375,19.709228515625,-14.364013671875
0.0425,-8.157958984375,19.589111328125,-11.841552734375
0.043,-11.120849609375,19.308837890625,-8.838623046875
0.0435,-14.884521484375,18.187744140625,-4.033935546875
0.044,-17.967529296875,16.746337890625,0.410400390625
0.0445,-19.689208984375,15.545166015625,3.253173828125
0.045,-20.209716796875,13.423095703125,5.855712890625
0.0455,-19.729248046875,10.300048828125,8.498291015625
0.046,-19.168701171875,5.975830078125,12.302001953125
0.0465,-18.327880859375,1.931884765625,15.625244140625
0.047,-17.246826171875,-2.192138671875,18.548095703125
0.0475,-15.525146484375,-4.834716796875,19.589111328125
0.048,-13.242919921875,-7.397216796875,19.869384765625
0.0485,-9.799560546875,-10.400146484375,19.509033203125
0.049,-4.354248046875,-14.283935546875,18.067626953125
0.0495,0.290283203125,-17.286865234375,16.666259765625
0.05,3.693603515625,-19.288818359375,15.585205078125
0.0505,6.336181640625,-19.889404296875,13.783447265625
0.051,9.058837890625,-19.489013671875,10.780517578125
0.0515,12.422119140625,-18.928466796875,7.056884765625
0.052,15.785400390625,-17.807373046875,2.732666015625
0.0525,18.708251953125,-16.325927734375,-1.631591796875
0.053,19.749267578125,-14.844482421875,-4.114013671875
0.0535,19.989501953125,-12.482177734375,-6.716552734375
0.054,19.509033203125,-9.279052734375,-9.439208984375
0.0545,18.628173828125,-4.634521484375,-13.282958984375
0.055,17.707275390625,-0.710693359375,-16.325927734375
0.0555,16.666259765625,2.852783203125,-18.808349609375
0.056,14.744384765625,5.495361328125,-19.569091796875
0.0565,11.821533203125,8.137939453125,-19.368896484375
0.057,7.977783203125,11.541259765625,-19.048583984375
0.0575,2.852783203125,15.064697265625,-17.647216796875
0.058,-1.751708984375,17.947509765625,-16.085693359375
0.0585,-4.474365234375,19.348876953125,-14.964599609375
0.059,-7.076904296875,19.709228515625,-12.962646484375
0.0595,-9.879638671875,19.228759765625,-9.879638671875
0.06,-13.483154296875,18.307861328125,-5.555419921875
0.0605,-16.686279296875,17.226806640625,-1.351318359375
0.061,-19.288818359375,15.825439453125,2.572509765625
0.0615,-19.889404296875,13.983642578125,4.974853515625
0.062,-19.849365234375,11.220947265625,7.697509765625
0.0625,-19.489013671875,7.697509765625,10.900634765625
0.063,-18.528076171875,3.133056640625,14.584228515625
0.0635,-17.326904296875,-0.990966796875,17.467041015625
0.064,-16.205810546875,-4.033935546875,19.388916015625
0.0645,-14.123779296875,-6.596435546875,19.909423828125
0.065,-10.840576171875,-9.359130859375,19.428955078125
0.0655,-6.276123046875,-13.042724609375,18.668212890625
0.066,-1.391357421875,-16.365966796875,17.306884765625
0.0665,2.972900390625,-18.888427734375,15.785400390625
0.067,5.455322265625,-19.689208984375,14.303955078125
0.0675,8.258056640625,-19.889404296875,11.941650390625
0.068,11.381103515625,-19.288818359375,8.458251953125
0.0685,14.864501953125,-18.207763671875,3.973876953125
0.069,17.907470703125,-16.966552734375,-0.310302734375
0.0695,20.029541015625,-15.605224609375,-3.593505859375
0.07,20.189697265625,-13.322998046875,-6.075927734375
0.0705,19.909423828125,-10.199951171875,-8.918701171875
0.071,19.348876953125,-6.115966796875,-12.442138671875
0.0715,18.427978515625,-1.871826171875,-15.885498046875
0.072,17.146728515625,2.212158203125,-18.568115234375
0.0725,15.585205078125,4.894775390625,-19.809326171875
0.073,13.182861328125,7.617431640625,-20.169677734375
0.0735,9.178955078125,10.820556640625,-19.489013671875
0.074,4.334228515625,14.384033203125,-18.327880859375
0.0745,-0.470458984375,17.587158203125,-16.966552734375
0.075,-4.234130859375,19.789306640625,-15.605224609375
0.0755,-6.676513671875,20.069580078125,-13.643310546875
0.076,-9.559326171875,19.949462890625,-10.920654296875
0.0765,-13.082763671875,19.228759765625,-6.876708984375
0.077,-16.365966796875,17.907470703125,-2.432373046875
0.0775,-19.128662109375,16.546142578125,1.731689453125
0.078,-20.570068359375,14.984619140625,4.654541015625
0.0785,-20.610107421875,12.342041015625,7.337158203125
0.079,-20.169677734375,8.778564453125,10.500244140625
0.0795,-19.288818359375,4.454345703125,14.063720703125
0.08,-18.287841796875,0.170166015625,17.306884765625
0.0805,-16.966552734375,-3.713623046875,19.789306640625
0.081,-14.924560546875,-6.156005859375,20.269775390625
0.0815,-12.241943359375,-8.958740234375,20.429931640625
0.082,-7.677490234375,-12.562255859375,19.549072265625
0.0825,-2.592529296875,-15.845458984375,17.987548828125
0.083,1.891845703125,-18.648193359375,16.586181640625
0.0835,5.255126953125,-20.449951171875,15.224853515625
0.084,7.697509765625,-20.329833984375,12.862548828125
0.0845,10.580322265625,-19.929443359375,9.859619140625
0.085,14.263916015625,-19.048583984375,5.455322265625
0.0855,17.467041015625,-17.647216796875,0.970947265625
0.086,19.949462890625,-16.205810546875,-2.952880859375
0.0865,20.670166015625,-14.283935546875,-5.515380859375
0.087,20.590087890625,-11.521240234375,-8.318115234375
0.0875,19.989501953125,-7.397216796875,-11.841552734375
0.088,18.908447265625,-3.193115234375,-15.044677734375
0.0885,17.787353515625,0.970947265625,-18.007568359375
0.089,16.385986328125,4.454345703125,-20.209716796875
0.0895,13.903564453125,6.896728515625,-20.169677734375
0.09,10.940673828125,9.699462890625,-20.049560546875
0.0905,6.015869140625,13.583251953125,-19.088623046875
0.091,1.010986328125,16.786376953125,-17.487060546875
0.0915,-3.032958984375,19.148681640625,-16.045654296875
0.092,-5.915771484375,20.269775390625,-14.604248046875
0.0925,-8.558349609375,20.149658203125,-12.041748046875
0.093,-11.721435546875,19.468994140625,-8.358154296875
0.0935,-15.044677734375,18.468017578125,-4.194091796875
0.094,-18.247802734375,17.026611328125,0.330322265625
0.0945,-20.289794921875,15.625244140625,3.813720703125
0.095,-20.449951171875,13.302978515625,6.216064453125
0.0955,-20.369873046875,10.420166015625,9.018798828125
0.096,-19.609130859375,5.815673828125,12.942626953125
0.0965,-18.568115234375,1.611572265625,16.065673828125
0.097,-17.326904296875,-2.192138671875,18.668212890625
0.0975,-15.925537109375,-5.275146484375,20.309814453125
0.098,-13.242919921875,-7.717529296875,20.189697265625
0.0985,-9.639404296875,-10.760498046875,19.709228515625
0.099,-4.834716796875,-14.364013671875,18.628173828125
0.0995,0.290283203125,-17.567138671875,17.026611328125
0.1,3.893798828125,-19.569091796875,15.625244140625
0.1005,6.456298828125,-20.129638671875,13.783447265625
0.101,9.259033203125,-20.089599609375,11.220947265625
0.1015,12.942626953125,-19.168701171875,6.816650390625
0.102,15.985595703125,-18.047607421875,2.772705078125
0.1025,18.908447265625,-16.766357421875,-1.351318359375
0.103,20.550048828125,-15.244873046875,-4.514404296875
0.1035,20.349853515625,-12.522216796875,-6.996826171875
0.104,20.149658203125,-9.319091796875,-10.039794921875
0.1045,19.308837890625,-4.834716796875,-13.803466796875
0.105,18.227783203125,-0.510498046875,-17.086669921875
0.1055,16.906494140625,3.052978515625,-19.248779296875
0.106,15.064697265625,5.815673828125,-20.209716796875
0.1065,12.221923828125,8.618408203125,-20.209716796875
0.107,7.537353515625,12.302001953125,-19.328857421875
0.1075,3.093017578125,15.425048828125,-18.167724609375
0.108,-1.751708984375,18.508056640625,-16.686279296875
0.1085,-5.114990234375,20.189697265625,-15.244873046875
0.109,-7.557373046875,20.109619140625,-12.882568359375
0.1095,-10.360107421875,20.069580078125,-10.280029296875
0.11,-14.404052734375,18.948486328125,-5.315185546875
0.1105,-17.567138671875,17.587158203125,-0.910888671875
0.111,-19.929443359375,16.305908203125,2.732666015625
0.1115,-21.090576171875,14.424072265625,5.655517578125
0.112,-20.650146484375,11.461181640625,8.298095703125
0.1125,-20.209716796875,7.497314453125,11.821533203125
0.113,-19.288818359375,3.173095703125,15.224853515625
0.1135,-18.127685546875,-1.271240234375,18.548095703125
0.114,-16.566162109375,-4.674560546875,20.389892578125
0.1145,-14.283935546875,-7.116943359375,20.670166015625
0.115,-11.441162109375,-9.959716796875,20.670166015625
0.1155,-5.835693359375,-14.123779296875,19.428955078125
0.116,-1.151123046875,-17.166748046875,17.867431640625
0.1165,3.052978515625,-19.689208984375,16.546142578125
0.117,6.216064453125,-21.010498046875,14.984619140625
0.1175,8.818603515625,-20.530029296875,12.101806640625
0.118,11.901611328125,-20.169677734375,8.818603515625
0.1185,15.665283203125,-19.088623046875,4.134033203125
0.119,18.988525390625,-17.487060546875,-0.710693359375
0.1195,20.830322265625,-16.005615234375,-3.953857421875
0.12,21.310791015625,-13.803466796875,-6.716552734375
0.1205,20.990478515625,-10.800537109375,-9.439208984375
0.121,20.149658203125,-5.835693359375,-13.603271484375
0.1215,19.068603515625,-1.791748046875,-16.526123046875
0.122,17.947509765625,2.292236328125,-19.489013671875
0.1225,16.185791015625,5.655517578125,-21.090576171875
0.123,13.222900390625,8.177978515625,-20.730224609375
0.1235,9.979736328125,11.220947265625,-20.610107421875
0.124,4.334228515625,15.385009765625,-19.248779296875
0.1245,-0.830810546875,18.427978515625,-17.406982421875
0.125,-4.274169921875,20.349853515625,-16.125732421875
0.1255,-7.237060546875,21.230712890625,-14.283935546875
0.126,-10.119873046875,20.670166015625,-11.200927734375
0.1265,-13.643310546875,19.869384765625,-6.916748046875
0.127,-16.966552734375,18.708251953125,-2.632568359375
0.1275,-20.089599609375,17.106689453125,2.092041015625
0.128,-21.490966796875,15.385009765625,5.094970703125
0.1285,-21.450927734375,12.582275390625,7.857666015625
0.129,-21.210693359375,9.459228515625,10.820556640625
0.1295,-20.209716796875,4.174072265625,15.104736328125
0.13,-18.888427734375,-0.150146484375,18.107666015625
0.1305,-17.607177734375,-3.673583984375,20.389892578125
0.131,-15.725341796875,-6.716552734375,21.631103515625
0.1315,-12.241943359375,-9.479248046875,20.990478515625
0.132,-8.157958984375,-12.962646484375,20.429931640625
0.1325,-2.872802734375,-16.646240234375,19.028564453125
0.133,2.412353515625,-19.729248046875,17.146728515625
0.1335,5.495361328125,-21.050537109375,15.625244140625
0.134,8.378173828125,-21.410888671875,13.302978515625
0.1345,11.260986328125,-21.010498046875,10.260009765625
0.135,15.344970703125,-19.729248046875,5.094970703125
0.1355,18.508056640625,-18.367919921875,0.770751953125
0.136,21.110595703125,-16.926513671875,-3.353271484375
0.1365,21.951416015625,-14.884521484375,-6.236083984375
0.137,21.470947265625,-11.601318359375,-9.078857421875
0.1375,21.150634765625,-7.957763671875,-12.362060546875
0.138,20.109619140625,-3.072998046875,-16.325927734375
0.1385,18.548095703125,1.731689453125,-19.529052734375
0.139,16.946533203125,4.894775390625,-21.090576171875
0.1395,14.744384765625,7.817626953125,-21.811279296875
0.14,11.060791015625,10.740478515625,-21.210693359375
0.1405,5.735595703125,14.784423828125,-20.009521484375
0.141,0.970947265625,17.947509765625,-18.648193359375
0.1415,-3.833740234375,20.750244140625,-16.966552734375
0.142,-6.756591796875,21.591064453125,-15.084716796875
0.1425,-9.679443359375,21.350830078125,-12.201904296875
0.143,-12.802490234375,20.910400390625,-8.838623046875
0.1435,-16.806396484375,19.468994140625,-3.553466796875
0.144,-19.969482421875,17.747314453125,1.331298828125
0.1445,-21.811279296875,16.225830078125,4.614501953125
0.145,-22.371826171875,13.863525390625,7.417236328125
0.1455,-21.651123046875,10.300048828125,10.380126953125
0.146,-20.890380859375,5.815673828125,14.143798828125
0.1465,-19.849365234375,1.411376953125,17.587158203125
0.147,-18.407958984375,-3.193115234375,20.630126953125
0.1475,-16.365966796875,-6.115966796875,21.671142578125
0.148,-13.763427734375,-8.918701171875,21.831298828125
0.1485,-9.959716796875,-12.001708984375,21.270751953125
0.149,-3.993896484375,-16.085693359375,19.589111328125
0.1495,0.970947265625,-19.168701171875,17.947509765625
0.15,4.854736328125,-21.330810546875,16.506103515625
0.1505,7.697509765625,-21.891357421875,14.384033203125
0.151,10.740478515625,-21.290771484375,10.980712890625
0.1515,14.103759765625,-20.610107421875,7.177001953125
0.152,17.707275390625,-19.208740234375,2.292236328125
0.1525,20.790283203125,-17.447021484375,-2.592529296875
0.153,21.951416015625,-15.685302734375,-5.395263671875
0.1535,22.191650390625,-13.002685546875,-8.278076171875
0.154,21.470947265625,-9.359130859375,-11.281005859375
0.1545,20.469970703125,-4.394287109375,-15.284912109375
0.155,19.228759765625,-0.150146484375,-18.327880859375
0.1555,17.907470703125,3.893798828125,-21.010498046875
0.156,15.585205078125,6.816650390625,-21.691162109375
0.1565,12.302001953125,9.739501953125,-21.370849609375
0.157,8.177978515625,13.182861328125,-20.850341796875
0.1575,2.492431640625,17.026611328125,-19.168701171875
0.158,-2.552490234375,19.949462890625,-17.326904296875
0.1585,-5.715576171875,21.470947265625,-15.965576171875
0.159,-8.598388671875,21.831298828125,-13.643310546875
0.1595,-11.681396484375,21.070556640625,-10.079833984375
0.16,-15.284912109375,20.149658203125,-5.515380859375
0.1605,-18.648193359375,18.588134765625,-0.950927734375
0.161,-21.490966796875,16.906494140625,3.573486328125
0.1615,-22.051513671875,14.784423828125,6.296142578125
0.162,-22.051513671875,11.701416015625,9.299072265625
0.1625,-21.490966796875,7.697509765625,12.782470703125
0.163,-20.289794921875,2.772705078125,16.626220703125
0.1635,-18.888427734375,-1.671630859375,19.589111328125
0.164,-17.447021484375,-5.114990234375,21.671142578125
0.1645,-15.084716796875,-7.877685546875,22.151611328125
0.165,-11.281005859375,-10.880615234375,21.470947265625
0.1655,-6.556396484375,-14.724365234375,20.590087890625
0.166,-1.031005859375,-18.247802734375,18.908447265625
0.1665,3.853759765625,-21.010498046875,17.026611328125
0.167,6.696533203125,-21.891357421875,15.304931640625
0.1675,9.739501953125,-22.011474609375,12.662353515625
0.168,13.022705078125,-21.290771484375,8.698486328125
0.1685,16.826416015625,-19.929443359375,3.853759765625
0.169,19.989501953125,-18.447998046875,-0.830810546875
0.1695,22.351806640625,-16.686279296875,-4.674560546875
0.17,22.431884765625,-14.123779296875,-7.397216796875
0.1705,22.071533203125,-10.600341796875,-10.560302734375
0.171,21.310791015625,-6.156005859375,-14.323974609375
0.1715,20.109619140625,-1.431396484375,-17.847412109375
0.172,18.427978515625,3.052978515625,-20.690185546875
0.1725,16.666259765625,6.216064453125,-22.051513671875
0.173,13.903564453125,9.098876953125,-22.291748046875
0.1735,9.539306640625,12.462158203125,-21.330810546875
0.174,4.414306640625,16.145751953125,-20.089599609375
0.1745,-0.870849609375,19.468994140625,-18.447998046875
0.175,-5.195068359375,21.791259765625,-16.686279296875
0.1755,-7.877685546875,22.031494140625,-14.484130859375
0.176,-11.000732421875,21.791259765625,-11.481201171875
0.1765,-14.724365234375,20.870361328125,-6.996826171875
0.177,-18.167724609375,19.228759765625,-2.272216796875
0.1775,-21.090576171875,17.707275390625,2.412353515625
0.178,-22.692138671875,15.865478515625,5.775634765625
0.1785,-22.572021484375,12.982666015625,8.618408203125
0.179,-22.011474609375,9.058837890625,11.981689453125
0.1795,-21.010498046875,4.414306640625,15.665283203125
0.18,-19.729248046875,-0.350341796875,19.148681640625
0.1805,-18.047607421875,-4.514404296875,21.711181640625
0.181,-15.845458984375,-7.277099609375,22.271728515625
