wavelength,x,y,z
0.0,1.931884765625,4.854736328125,-6.075927734375
0.0005,3.373291015625,3.453369140625,-6.396240234375
0.001,4.414306640625,2.212158203125,-6.436279296875
0.0015,4.974853515625,1.051025390625,-6.115966796875
0.002,5.215087890625,0.330322265625,-5.915771484375
0.0025,5.415283203125,-0.630615234375,-5.635498046875
0.003,5.655517578125,-1.511474609375,-5.235107421875
0.0035,5.335205078125,-2.992919921875,-3.713623046875
0.004,4.894775390625,-4.194091796875,-2.272216796875
0.0045,4.454345703125,-4.834716796875,-1.351318359375
0.005,4.053955078125,-5.395263671875,-0.590576171875
0.0055,3.533447265625,-5.955810546875,0.450439453125
0.006,2.212158203125,-6.236083984375,1.971923828125
0.0065,0.890869140625,-6.236083984375,3.333251953125
0.007,-0.310302734375,-6.075927734375,4.214111328125
0.0075,-0.990966796875,-6.075927734375,4.974853515625
0.008,-1.911865234375,-5.755615234375,5.695556640625
0.0085,-2.912841796875,-5.435302734375,6.536376953125
0.009,-4.514404296875,-3.713623046875,6.696533203125
0.0095,-5.355224609375,-2.152099609375,6.416259765625
0.01,-5.795654296875,-1.191162109375,6.135986328125
0.0105,-5.955810546875,-0.390380859375,5.815673828125
0.011,-6.156005859375,0.610595703125,5.375244140625
0.0115,-6.115966796875,1.971923828125,4.294189453125
0.012,-5.835693359375,3.253173828125,2.932861328125
0.0125,-5.195068359375,4.254150390625,1.571533203125
0.013,-4.674560546875,4.814697265625,0.650634765625
0.0135,-4.114013671875,5.255126953125,-0.310302734375
0.014,-3.553466796875,5.775634765625,-1.271240234375
0.0145,-1.751708984375,5.775634765625,-3.072998046875
0.015,-0.310302734375,5.695556640625,-4.354248046875
0.0155,0.610595703125,5.495361328125,-5.074951171875
0.016,1.291259765625,5.375244140625,-5.715576171875
0.0165,2.372314453125,4.814697265625,-6.436279296875
0.017,3.653564453125,3.853759765625,-6.996826171875
0.0175,4.814697265625,2.252197265625,-7.076904296875
0.018,5.575439453125,0.890869140625,-6.556396484375
0.0185,5.735595703125,0.010009765625,-6.236083984375
0.019,5.815673828125,-0.950927734375,-5.795654296875
0.0195,6.015869140625,-1.871826171875,-5.395263671875
0.02,5.655517578125,-3.473388671875,-3.673583984375
0.0205,5.215087890625,-4.674560546875,-2.272216796875
0.021,4.614501953125,-5.395263671875,-1.191162109375
0.0215,4.093994140625,-5.875732421875,-0.310302734375
0.022,3.453369140625,-6.276123046875,0.730712890625
0.0225,2.492431640625,-6.716552734375,1.931884765625
0.023,0.810791015625,-6.596435546875,3.573486328125
0.0235,-0.630615234375,-6.316162109375,4.734619140625
0.024,-1.311279296875,-6.196044921875,5.375244140625
0.0245,-2.072021484375,-5.995849609375,6.015869140625
0.025,-3.153076171875,-5.475341796875,6.736572265625
0.0255,-4.754638671875,-4.033935546875,6.896728515625
0.026,-5.675537109375,-2.432373046875,6.896728515625
0.0265,-6.156005859375,-1.151123046875,6.416259765625
0.027,-6.276123046875,-0.310302734375,6.015869140625
0.0275,-6.356201171875,0.690673828125,5.535400390625
0.028,-6.476318359375,1.731689453125,4.974853515625
0.0285,-6.035888671875,3.293212890625,3.173095703125
0.029,-5.435302734375,4.414306640625,1.651611328125
0.0295,-4.834716796875,4.974853515625,0.730712890625
0.03,-4.274169921875,5.415283203125,-0.230224609375
0.0305,-3.633544921875,5.775634765625,-1.151123046875
0.031,-2.112060546875,6.015869140625,-2.792724609375
0.0315,-0.670654296875,5.935791015625,-4.154052734375
0.032,0.610595703125,5.615478515625,-5.074951171875
0.0325,1.251220703125,5.415283203125,-5.675537109375
0.033,2.052001953125,5.054931640625,-6.316162109375
0.0335,3.093017578125,4.494384765625,-7.277099609375
0.034,4.654541015625,2.772705078125,-7.076904296875
0.0345,5.495361328125,1.251220703125,-6.756591796875
0.035,5.775634765625,0.250244140625,-6.396240234375
0.0355,5.895751953125,-0.630615234375,-6.035888671875
0.036,5.935791015625,-1.591552734375,-5.475341796875
0.0365,5.895751953125,-2.872802734375,-4.474365234375
0.037,5.495361328125,-4.194091796875,-2.952880859375
0.0375,4.854736328125,-5.195068359375,-1.551513671875
0.038,4.294189453125,-5.755615234375,-0.630615234375
0.0385,3.773681640625,-6.115966796875,0.330322265625
0.039,3.173095703125,-6.676513671875,1.291259765625
0.0395,1.331298828125,-6.636474609375,3.052978515625
0.04,-0.190185546875,-6.476318359375,4.414306640625
0.0405,-1.031005859375,-6.356201171875,5.094970703125
0.041,-1.751708984375,-6.196044921875,5.775634765625
0.0415,-2.792724609375,-5.755615234375,6.456298828125
0.042,-4.033935546875,-4.754638671875,7.056884765625
0.0425,-5.315185546875,-3.153076171875,7.056884765625
0.043,-6.075927734375,-1.591552734375,6.576416015625
0.0435,-6.276123046875,-0.630615234375,6.216064453125
0.044,-6.396240234375,0.290283203125,5.815673828125
0.0445,-6.476318359375,1.211181640625,5.375244140625
0.045,-6.156005859375,2.812744140625,3.693603515625
0.0455,-5.755615234375,4.053955078125,2.252197265625
0.046,-5.114990234375,4.814697265625,1.091064453125
0.0465,-4.554443359375,5.255126953125,0.170166015625
0.047,-3.873779296875,5.735595703125,-0.830810546875
0.0475,-3.032958984375,6.095947265625,-1.991943359375
0.048,-1.271240234375,6.015869140625,-3.713623046875
0.0485,0.290283203125,5.695556640625,-4.914794921875
0.049,1.010986328125,5.535400390625,-5.515380859375
0.0495,1.771728515625,5.295166015625,-6.196044921875
0.05,2.812744140625,4.854736328125,-6.916748046875
0.0505,4.334228515625,3.293212890625,-7.197021484375
0.051,5.375244140625,1.851806640625,-7.076904296875
0.0515,5.855712890625,0.570556640625,-6.636474609375
0.052,5.975830078125,-0.430419921875,-6.236083984375
0.0525,6.055908203125,-1.311279296875,-5.755615234375
0.053,6.216064453125,-2.312255859375,-5.195068359375
0.0535,5.695556640625,-3.953857421875,-3.353271484375
0.054,5.094970703125,-5.155029296875,-1.791748046875
0.0545,4.494384765625,-5.715576171875,-0.790771484375
0.055,3.973876953125,-6.196044921875,0.130126953125
0.0555,3.293212890625,-6.596435546875,1.131103515625
0.056,1.811767578125,-6.796630859375,2.732666015625
0.0565,0.290283203125,-6.716552734375,4.134033203125
0.057,-0.990966796875,-6.396240234375,5.094970703125
0.0575,-1.631591796875,-6.236083984375,5.615478515625
0.058,-2.552490234375,-5.835693359375,6.336181640625
0.0585,-3.553466796875,-5.315185546875,7.056884765625
0.059,-5.114990234375,-3.473388671875,7.056884765625
0.0595,-5.955810546875,-1.911865234375,6.696533203125
0.06,-6.276123046875,-0.830810546875,6.296142578125
0.0605,-6.316162109375,0.050048828125,5.895751953125
0.061,-6.356201171875,0.930908203125,5.375244140625
0.0615,-6.276123046875,2.252197265625,4.294189453125
0.062,-5.875732421875,3.533447265625,2.852783203125
0.0625,-5.155029296875,4.534423828125,1.371337890625
0.063,-4.634521484375,5.014892578125,0.490478515625
0.0635,-4.114013671875,5.415283203125,-0.390380859375
0.064,-3.513427734375,5.895751953125,-1.271240234375
0.0645,-1.791748046875,5.815673828125,-2.992919921875
0.065,-0.310302734375,5.615478515625,-4.354248046875
0.0655,0.650634765625,5.415283203125,-5.074951171875
0.066,1.291259765625,5.375244140625,-5.635498046875
0.0665,2.132080078125,5.014892578125,-6.316162109375
0.067,3.333251953125,4.174072265625,-6.876708984375
0.0675,4.494384765625,2.692626953125,-6.916748046875
0.068,5.295166015625,1.211181640625,-6.476318359375
0.0685,5.575439453125,0.330322265625,-6.236083984375
0.069,5.735595703125,-0.590576171875,-5.915771484375
0.0695,5.855712890625,-1.311279296875,-5.635498046875
0.07,5.575439453125,-2.752685546875,-4.154052734375
0.0705,5.175048828125,-3.993896484375,-2.792724609375
0.071,4.694580078125,-4.794677734375,-1.671630859375
0.0715,4.254150390625,-5.395263671875,-0.790771484375
0.072,3.773681640625,-5.915771484375,0.130126953125
0.0725,3.052978515625,-6.396240234375,1.171142578125
0.073,1.531494140625,-6.396240234375,2.652587890625
0.0735,0.050048828125,-6.156005859375,3.893798828125
0.074,-0.710693359375,-6.115966796875,4.654541015625
0.0745,-1.431396484375,-6.075927734375,5.415283203125
0.075,-2.392333984375,-5.795654296875,6.176025390625
0.0755,-3.833740234375,-4.434326171875,6.536376953125
0.076,-4.914794921875,-3.113037109375,6.576416015625
0.0765,-5.515380859375,-1.831787109375,6.256103515625
0.077,-5.835693359375,-0.990966796875,5.975830078125
0.0775,-6.035888671875,-0.190185546875,5.695556640625
0.078,-6.156005859375,0.810791015625,5.295166015625
0.0785,-5.795654296875,2.252197265625,3.813720703125
0.079,-5.355224609375,3.493408203125,2.332275390625
0.0795,-4.914794921875,4.134033203125,1.371337890625
0.08,-4.474365234375,4.694580078125,0.570556640625
0.0805,-3.993896484375,5.175048828125,-0.390380859375
0.081,-2.792724609375,5.415283203125,-1.791748046875
0.0815,-1.471435546875,5.455322265625,-3.153076171875
0.082,-0.270263671875,5.255126953125,-4.073974609375
0.0825,0.490478515625,5.255126953125,-4.794677734375
0.083,1.251220703125,5.135009765625,-5.515380859375
0.0835,2.132080078125,4.934814453125,-6.316162109375
0.084,3.573486328125,3.333251953125,-6.436279296875
0.0845,4.534423828125,1.931884765625,-6.276123046875
0.085,4.974853515625,0.930908203125,-6.075927734375
0.0855,5.215087890625,0.210205078125,-5.835693359375
0.086,5.415283203125,-0.670654296875,-5.595458984375
0.0865,5.415283203125,-1.751708984375,-4.834716796875
0.087,5.175048828125,-2.992919921875,-3.593505859375
0.0875,4.694580078125,-3.993896484375,-2.272216796875
0.088,4.294189453125,-4.674560546875,-1.391357421875
0.0885,3.973876953125,-5.275146484375,-0.670654296875
0.089,3.653564453125,-5.915771484375,0.250244140625
0.0895,2.172119140625,-5.955810546875,1.651611328125
0.09,0.890869140625,-5.915771484375,3.012939453125
0.0905,0.010009765625,-5.835693359375,3.853759765625
0.091,-0.790771484375,-5.915771484375,4.574462890625
0.0915,-1.591552734375,-5.755615234375,5.415283203125
0.092,-2.672607421875,-5.195068359375,6.055908203125
0.0925,-3.873779296875,-3.873779296875,6.216064453125
0.093,-4.754638671875,-2.432373046875,5.975830078125
0.0935,-5.195068359375,-1.631591796875,5.815673828125
0.094,-5.475341796875,-0.950927734375,5.695556640625
0.0945,-5.755615234375,-0.190185546875,5.575439453125
0.095,-5.635498046875,1.171142578125,4.374267578125
0.0955,-5.395263671875,2.332275390625,3.253173828125
0.096,-4.994873046875,3.173095703125,2.212158203125
0.0965,-4.634521484375,3.853759765625,1.331298828125
0.097,-4.314208984375,4.494384765625,0.570556640625
0.0975,-3.833740234375,5.014892578125,-0.510498046875
0.098,-2.432373046875,5.135009765625,-1.871826171875
0.0985,-1.151123046875,5.054931640625,-3.032958984375
0.099,-0.430419921875,5.094970703125,-3.873779296875
0.0995,0.370361328125,5.175048828125,-4.634521484375
0.1,1.211181640625,5.094970703125,-5.515380859375
0.1005,2.532470703125,4.013916015625,-5.915771484375
0.101,3.653564453125,2.892822265625,-6.115966796875
0.1015,4.294189453125,1.731689453125,-5.915771484375
0.102,4.734619140625,0.970947265625,-5.795654296875
0.1025,4.974853515625,0.250244140625,-5.675537109375
0.103,5.335205078125,-0.590576171875,-5.595458984375
0.1035,5.094970703125,-1.911865234375,-4.314208984375
0.104,4.774658203125,-3.072998046875,-3.032958984375
0.1045,4.454345703125,-3.873779296875,-2.192138671875
0.105,4.174072265625,-4.554443359375,-1.391357421875
0.1055,3.853759765625,-5.235107421875,-0.630615234375
0.106,2.932861328125,-5.515380859375,0.770751953125
0.1065,1.851806640625,-5.755615234375,1.931884765625
0.107,0.770751953125,-5.635498046875,2.932861328125
0.1075,0.050048828125,-5.755615234375,3.773681640625
0.108,-0.790771484375,-5.795654296875,4.614501953125
0.1085,-1.631591796875,-5.755615234375,5.495361328125
0.109,-3.113037109375,-4.514404296875,5.735595703125
0.1095,-4.114013671875,-3.113037109375,5.735595703125
0.11,-4.634521484375,-2.192138671875,5.655517578125
0.1105,-5.034912109375,-1.511474609375,5.615478515625
0.111,-5.355224609375,-0.790771484375,5.495361328125
0.1115,-5.475341796875,0.290283203125,4.934814453125
0.112,-5.395263671875,1.411376953125,3.973876953125
0.1125,-4.994873046875,2.452392578125,2.692626953125
0.113,-4.714599609375,3.213134765625,1.891845703125
0.1135,-4.514404296875,3.853759765625,1.131103515625
0.114,-4.274169921875,4.694580078125,0.530517578125
0.1145,-2.992919921875,4.814697265625,-1.071044921875
0.115,-1.871826171875,4.934814453125,-2.272216796875
0.1155,-0.990966796875,4.974853515625,-3.193115234375
0.116,-0.310302734375,5.094970703125,-3.993896484375
0.1165,0.610595703125,5.054931640625,-4.874755859375
0.117,1.611572265625,4.534423828125,-5.755615234375
0.1175,2.812744140625,3.533447265625,-5.875732421875
0.118,3.813720703125,2.252197265625,-5.755615234375
0.1185,4.334228515625,1.411376953125,-5.715576171875
0.119,4.694580078125,0.730712890625,-5.715576171875
0.1195,5.094970703125,0.050048828125,-5.715576171875
0.12,4.974853515625,-1.271240234375,-4.634521484375
0.1205,4.814697265625,-2.432373046875,-3.633544921875
0.121,4.534423828125,-3.353271484375,-2.672607421875
0.1215,4.294189453125,-4.154052734375,-1.831787109375
0.122,4.093994140625,-4.754638671875,-1.151123046875
0.1225,3.613525390625,-5.395263671875,0.010009765625
0.123,2.412353515625,-5.595458984375,1.291259765625
0.1235,1.171142578125,-5.595458984375,2.532470703125
0.124,0.490478515625,-5.755615234375,3.373291015625
0.1245,-0.350341796875,-5.835693359375,4.214111328125
0.125,-1.311279296875,-5.915771484375,5.094970703125
0.1255,-2.592529296875,-4.794677734375,5.615478515625
0.126,-3.713623046875,-3.673583984375,5.855712890625
0.1265,-4.514404296875,-2.472412109375,5.735595703125
0.127,-4.914794921875,-1.671630859375,5.615478515625
0.1275,-5.275146484375,-0.990966796875,5.495361328125
0.128,-5.635498046875,-0.190185546875,5.415283203125
0.1285,-5.435302734375,1.251220703125,4.134033203125
0.129,-5.114990234375,2.412353515625,2.852783203125
0.1295,-4.834716796875,3.173095703125,1.971923828125
0.13,-4.674560546875,3.773681640625,1.251220703125
0.1305,-4.154052734375,4.494384765625,0.410400390625
0.131,-3.233154296875,4.854736328125,-0.910888671875
0.1315,-2.072021484375,5.094970703125,-2.192138671875
0.132,-0.990966796875,4.974853515625,-3.233154296875
0.1325,-0.310302734375,5.094970703125,-4.033935546875
0.133,0.530517578125,4.974853515625,-4.874755859375
0.1335,1.451416015625,4.974853515625,-5.715576171875
0.134,2.932861328125,3.533447265625,-5.955810546875
0.1345,3.933837890625,2.252197265625,-5.955810546875
0.135,4.494384765625,1.331298828125,-5.835693359375
0.1355,4.814697265625,0.650634765625,-5.755615234375
0.136,5.094970703125,-0.270263671875,-5.515380859375
0.1365,5.215087890625,-1.311279296875,-4.954833984375
0.137,5.054931640625,-2.592529296875,-3.793701171875
0.1375,4.614501953125,-3.673583984375,-2.552490234375
0.138,4.334228515625,-4.154052734375,-1.631591796875
0.1385,4.013916015625,-4.914794921875,-0.950927734375
0.139,3.693603515625,-5.555419921875,0.010009765625
0.1395,2.292236328125,-5.715576171875,1.451416015625
0.14,1.131103515625,-5.795654296875,2.692626953125
0.1405,0.250244140625,-5.795654296875,3.573486328125
0.141,-0.510498046875,-5.835693359375,4.454345703125
0.1415,-1.431396484375,-5.715576171875,5.175048828125
0.142,-2.552490234375,-5.195068359375,5.895751953125
0.1425,-3.833740234375,-3.833740234375,6.095947265625
0.143,-4.714599609375,-2.432373046875,5.895751953125
0.1435,-5.155029296875,-1.591552734375,5.735595703125
0.144,-5.435302734375,-0.910888671875,5.615478515625
0.1445,-5.635498046875,0.010009765625,5.375244140625
0.145,-5.555419921875,1.331298828125,4.174072265625
0.1455,-5.395263671875,2.492431640625,3.052978515625
0.146,-4.874755859375,3.333251953125,1.931884765625
0.1465,-4.594482421875,3.973876953125,1.211181640625
0.147,-4.194091796875,4.574462890625,0.330322265625
0.1475,-3.633544921875,5.135009765625,-0.710693359375
0.148,-2.192138671875,5.215087890625,-2.192138671875
0.1485,-0.910888671875,5.094970703125,-3.393310546875
0.149,-0.190185546875,5.175048828125,-4.154052734375
0.1495,0.610595703125,5.175048828125,-4.914794921875
0.15,1.571533203125,4.934814453125,-5.755615234375
0.1505,2.932861328125,3.813720703125,-6.196044921875
0.151,4.053955078125,2.532470703125,-6.276123046875
0.1515,4.694580078125,1.331298828125,-6.075927734375
0.152,5.014892578125,0.570556640625,-5.835693359375
0.1525,5.215087890625,-0.470458984375,-5.715576171875
0.153,5.535400390625,-1.231201171875,-5.435302734375
0.1535,5.215087890625,-2.712646484375,-3.873779296875
0.154,4.854736328125,-3.793701171875,-2.432373046875
0.1545,4.494384765625,-4.594482421875,-1.631591796875
0.155,4.134033203125,-5.195068359375,-0.790771484375
0.1555,3.653564453125,-5.755615234375,0.210205078125
0.156,2.532470703125,-6.115966796875,1.571533203125
0.1565,1.171142578125,-6.196044921875,3.012939453125
0.157,0.010009765625,-6.035888671875,4.013916015625
0.1575,-0.790771484375,-6.075927734375,4.814697265625
0.158,-1.631591796875,-5.915771484375,5.535400390625
0.1585,-2.672607421875,-5.555419921875,6.416259765625
0.159,-4.274169921875,-3.833740234375,6.576416015625
0.1595,-5.275146484375,-2.352294921875,6.416259765625
0.16,-5.755615234375,-1.311279296875,6.135986328125
0.1605,-5.915771484375,-0.670654296875,5.775634765625
0.161,-6.075927734375,0.450439453125,5.415283203125
0.1615,-6.115966796875,1.771728515625,4.414306640625
0.162,-5.755615234375,3.133056640625,2.972900390625
0.1625,-5.235107421875,4.214111328125,1.611572265625
0.163,-4.714599609375,4.774658203125,0.730712890625
0.1635,-4.194091796875,5.215087890625,-0.190185546875
0.164,-3.593505859375,5.735595703125,-1.151123046875
0.1645,-1.871826171875,5.735595703125,-2.912841796875
0.165,-0.470458984375,5.695556640625,-4.274169921875
0.1655,0.570556640625,5.455322265625,-5.034912109375
0.166,1.251220703125,5.375244140625,-5.635498046875
0.1665,2.212158203125,4.934814453125,-6.356201171875
0.167,3.453369140625,4.013916015625,-6.996826171875
0.1675,4.774658203125,2.452392578125,-6.996826171875
0.168,5.535400390625,0.930908203125,-6.556396484375
0.1685,5.615478515625,-0.190185546875,-6.156005859375
0.169,5.815673828125,-0.910888671875,-5.835693359375
0.1695,5.895751953125,-1.831787109375,-5.395263671875
0.17,5.575439453125,-3.393310546875,-3.833740234375
0.1705,5.255126953125,-4.634521484375,-2.392333984375
0.171,4.654541015625,-5.355224609375,-1.231201171875
0.1715,4.134033203125,-5.835693359375,-0.310302734375
0.172,3.533447265625,-6.276123046875,0.650634765625
0.1725,2.652587890625,-6.716552734375,1.811767578125
0.173,0.930908203125,-6.596435546875,3.493408203125
0.1735,-0.590576171875,-6.356201171875,4.654541015625
0.174,-1.271240234375,-6.196044921875,5.295166015625
0.1745,-1.991943359375,-6.035888671875,5.935791015625
0.175,-3.072998046875,-5.515380859375,6.696533203125
0.1755,-4.554443359375,-3.993896484375,7.016845703125
0.176,-5.635498046875,-2.592529296875,6.936767578125
0.1765,-6.276123046875,-1.311279296875,6.456298828125
0.177,-6.356201171875,-0.390380859375,6.055908203125
0.1775,-6.396240234375,0.610595703125,5.575439453125
0.178,-6.396240234375,1.651611328125,5.054931640625
0.1785,-6.035888671875,3.173095703125,3.253173828125
0.179,-5.475341796875,4.414306640625,1.731689453125
0.1795,-4.914794921875,4.974853515625,0.770751953125
0.18,-4.354248046875,5.415283203125,-0.190185546875
0.1805,-3.673583984375,5.815673828125,-1.151123046875
0.181,-2.272216796875,6.055908203125,-2.672607421875
0.1815,-0.790771484375,5.975830078125,-4.114013671875
0.182,0.610595703125,5.615478515625,-5.074951171875
0.1825,1.251220703125,5.455322265625,-5.715576171875
0.183,2.011962890625,5.175048828125,-6.316162109375
0.1835,3.052978515625,4.734619140625,-7.076904296875
0.184,4.614501953125,2.852783203125,-7.076904296875
0.1845,5.495361328125,1.251220703125,-6.796630859375
0.185,5.815673828125,0.250244140625,-6.436279296875
0.1855,5.895751953125,-0.630615234375,-6.115966796875
0.186,6.015869140625,-1.471435546875,-5.555419921875
0.1865,5.895751953125,-2.752685546875,-4.554443359375
0.187,5.495361328125,-4.114013671875,-3.072998046875
0.1875,4.894775390625,-5.155029296875,-1.591552734375
0.188,4.334228515625,-5.715576171875,-0.630615234375
