wavelength,x,y,z
0.0,-9.2490234375,11.53125,-2.8828125
0.0005,-6.40625,10.810546875,-5.125
0.001,-4.32421875,10.41015625,-6.8466796875
0.0015,-1.841796875,10.5302734375,-9.4892578125
0.002,0.5205078125,9.048828125,-10.1298828125
0.0025,1.681640625,8.9287109375,-11.0908203125
0.003,3.84375,7.3271484375,-11.6513671875
0.0035,5.8857421875,4.884765625,-11.2109375
0.004,8.48828125,2.322265625,-11.2109375
0.0045,10.7705078125,-0.3603515625,-10.7705078125
0.005,11.05078125,-1.9619140625,-9.4091796875
0.0055,12.171875,-2.962890625,-9.4892578125
0.006,12.0517578125,-5.4453125,-7.0068359375
0.0065,11.53125,-7.2470703125,-4.6845703125
0.007,11.8115234375,-9.849609375,-2.322265625
0.0075,10.5703125,-10.890625,0.1201171875
0.008,9.609375,-11.05078125,1.201171875
0.0085,8.7685546875,-11.69140625,2.7626953125
0.009,5.765625,-10.9306640625,5.0849609375
0.0095,3.5234375,-10.650390625,6.966796875
0.01,1.0810546875,-10.5703125,9.44921875
0.0105,-1.1611328125,-8.96875,9.9296875
0.011,-2.1220703125,-8.8486328125,10.6904296875
0.0115,-4.4443359375,-6.88671875,11.0107421875
0.012,-6.56640625,-4.3642578125,10.5302734375
0.0125,-9.2890625,-1.681640625,10.5302734375
0.013,-11.2109375,0.880859375,9.9296875
0.0135,-11.291015625,2.2421875,8.6484375
0.014,-12.2119140625,3.36328125,8.4482421875
0.0145,-12.0517578125,6.0458984375,5.6455078125
0.015,-11.4912109375,7.8076171875,3.3232421875
0.0155,-11.6513671875,10.41015625,0.9208984375
0.016,-10.25,11.130859375,-1.361328125
0.0165,-9.3291015625,11.0908203125,-2.2822265625
0.017,-8.0078125,11.451171875,-4.1240234375
0.0175,-5.044921875,10.73046875,-6.486328125
0.018,-2.642578125,10.41015625,-8.48828125
0.0185,0.0,10.2099609375,-10.7705078125
0.019,1.841796875,8.6484375,-10.970703125
0.0195,2.72265625,8.328125,-11.53125
0.02,5.365234375,6.0458984375,-11.8115234375
0.0205,7.4072265625,3.4833984375,-11.2509765625
0.021,10.0498046875,0.7607421875,-11.130859375
0.0215,11.69140625,-1.6416015625,-10.41015625
0.022,11.6513671875,-2.9228515625,-9.0888671875
0.0225,12.33203125,-4.32421875,-8.408203125
0.023,12.171875,-7.046875,-5.4853515625
0.0235,11.53125,-8.6083984375,-3.2431640625
0.024,11.53125,-11.05078125,-0.80078125
0.0245,10.009765625,-11.53125,1.28125
0.025,8.96875,-11.37109375,2.162109375
0.0255,7.20703125,-11.611328125,4.1640625
0.026,4.32421875,-10.8505859375,6.4462890625
0.0265,1.921875,-10.4501953125,8.4482421875
0.027,-0.560546875,-10.08984375,10.490234375
0.0275,-2.2021484375,-8.5283203125,10.5302734375
0.028,-3.283203125,-7.8876953125,10.8505859375
0.0285,-6.166015625,-5.28515625,11.130859375
0.029,-8.087890625,-2.7626953125,10.490234375
0.0295,-10.41015625,-0.3203125,10.2900390625
0.03,-11.8115234375,1.921875,9.529296875
0.0305,-11.69140625,3.203125,8.0478515625
0.031,-12.2119140625,4.884765625,6.9267578125
0.0315,-11.9716796875,7.52734375,4.0439453125
0.032,-11.2509765625,8.9287109375,2.001953125
0.0325,-11.2109375,11.05078125,-0.3603515625
0.033,-9.5693359375,11.291015625,-2.322265625
0.0335,-8.3681640625,11.0107421875,-3.3232421875
0.034,-6.2861328125,11.2109375,-5.6455078125
0.0345,-3.5634765625,10.5302734375,-7.7275390625
0.035,-1.28125,10.08984375,-9.4892578125
0.0355,1.041015625,9.609375,-11.2509765625
0.036,2.6826171875,8.0078125,-11.2109375
0.0365,3.9638671875,7.046875,-11.4912109375
0.037,7.046875,4.244140625,-11.69140625
0.0375,8.80859375,1.8017578125,-10.890625
0.038,10.7705078125,-0.48046875,-10.6904296875
0.0385,11.931640625,-2.5224609375,-9.8095703125
0.039,11.8115234375,-3.923828125,-8.2080078125
0.0395,12.091796875,-5.765625,-6.7265625
0.04,11.8916015625,-8.328125,-3.9638671875
0.0405,11.05078125,-9.4892578125,-2.001953125
0.041,10.970703125,-11.4111328125,0.080078125
0.0415,9.1689453125,-11.4912109375,2.0419921875
0.042,7.6875,-11.0908203125,3.2431640625
0.0425,5.4453125,-11.2509765625,5.7255859375
0.043,2.8427734375,-10.5703125,7.6875
0.0435,0.80078125,-10.009765625,9.0888671875
0.044,-1.44140625,-9.529296875,10.7705078125
0.0445,-3.1630859375,-7.7275390625,10.6103515625
0.045,-4.7646484375,-6.326171875,10.7705078125
0.0455,-7.84765625,-3.5634765625,11.0107421875
0.046,-9.369140625,-1.0810546875,10.009765625
0.0465,-11.05078125,0.880859375,9.849609375
0.047,-12.0517578125,2.802734375,8.888671875
0.0475,-11.8115234375,4.484375,6.966796875
0.048,-12.01171875,6.40625,5.205078125
0.0485,-11.8515625,8.9287109375,2.5224609375
0.049,-10.6904296875,9.7294921875,0.48046875
0.0495,-10.73046875,11.37109375,-1.28125
0.05,-8.6083984375,11.37109375,-3.36328125
0.0505,-6.9267578125,10.9306640625,-4.6845703125
0.051,-4.5244140625,11.05078125,-7.2470703125
0.0515,-1.8818359375,10.2900390625,-9.0888671875
0.052,0.0400390625,9.609375,-10.2099609375
0.0525,2.0419921875,9.0888671875,-11.69140625
0.053,4.0439453125,7.0068359375,-11.53125
0.0535,5.8857421875,5.2451171875,-11.4912109375
0.054,8.9287109375,2.40234375,-11.69140625
0.0545,10.2099609375,-0.2001953125,-10.41015625
0.055,11.5712890625,-1.681640625,-10.25
0.0555,12.412109375,-3.603515625,-9.12890625
0.056,11.9716796875,-5.4052734375,-6.9267578125
0.0565,12.01171875,-7.52734375,-4.96484375
0.057,11.8115234375,-9.8896484375,-2.40234375
0.0575,10.41015625,-10.41015625,-0.4404296875
0.058,10.41015625,-11.771484375,1.1611328125
0.0585,7.9677734375,-11.4912109375,3.36328125
0.059,6.0859375,-10.9306640625,4.8046875
0.0595,3.68359375,-11.0908203125,7.4072265625
0.06,1.12109375,-10.2099609375,9.0087890625
0.0605,-0.640625,-9.4892578125,9.8896484375
0.061,-2.5625,-8.80859375,11.130859375
0.0615,-4.64453125,-6.4462890625,10.8505859375
0.062,-6.6865234375,-4.3642578125,10.73046875
0.0625,-9.6494140625,-1.7216796875,10.890625
0.063,-10.5302734375,0.7607421875,9.4091796875
0.0635,-11.69140625,1.921875,9.44921875
0.064,-12.2119140625,3.9638671875,7.927734375
0.0645,-11.7314453125,5.765625,5.5654296875
0.065,-11.8115234375,7.9677734375,3.4833984375
0.0655,-11.53125,10.08984375,0.9208984375
0.066,-10.009765625,10.3701171875,-0.9208984375
0.0665,-9.9697265625,11.5712890625,-2.2021484375
0.067,-7.3271484375,11.1708984375,-4.484375
0.0675,-5.2451171875,10.6103515625,-6.0458984375
0.068,-2.8828125,10.810546875,-8.6884765625
0.0685,-0.3603515625,9.6494140625,-9.9697265625
0.069,1.12109375,9.048828125,-10.7705078125
0.0695,3.04296875,8.16796875,-11.7314453125
0.07,5.205078125,5.7255859375,-11.37109375
0.0705,7.4072265625,3.443359375,-11.2109375
0.071,10.2099609375,0.7607421875,-11.2509765625
0.0715,10.810546875,-1.44140625,-9.689453125
0.072,11.8515625,-2.40234375,-9.8095703125
0.0725,12.171875,-4.64453125,-7.9677734375
0.073,11.6513671875,-6.486328125,-5.60546875
0.0735,11.771484375,-8.8486328125,-3.36328125
0.074,11.1708984375,-10.5703125,-0.9208984375
0.0745,9.76953125,-10.650390625,0.6806640625
0.075,9.529296875,-11.5712890625,1.921875
0.0755,6.6865234375,-11.05078125,4.2841796875
0.076,4.484375,-10.5703125,6.005859375
0.0765,2.162109375,-10.7705078125,8.568359375
0.077,-0.3203125,-9.369140625,9.529296875
0.0775,-1.521484375,-8.96875,10.2099609375
0.078,-3.4833984375,-7.7275390625,10.890625
0.0785,-5.6455078125,-5.205078125,10.5302734375
0.079,-8.0478515625,-2.7626953125,10.41015625
0.0795,-10.5703125,-0.16015625,10.2900390625
0.08,-10.890625,1.681640625,8.80859375
0.0805,-11.771484375,2.482421875,8.8486328125
0.081,-11.8916015625,4.884765625,6.56640625
0.0815,-11.4111328125,6.6865234375,4.2041015625
0.082,-11.5712890625,9.2490234375,1.921875
0.0825,-10.650390625,10.6103515625,-0.5205078125
0.083,-9.44921875,10.5703125,-1.681640625
0.0835,-8.8486328125,11.2509765625,-3.04296875
0.084,-5.92578125,10.650390625,-5.4052734375
0.0845,-3.68359375,10.2099609375,-7.20703125
0.085,-1.3212890625,10.330078125,-9.6494140625
0.0855,0.9609375,8.8486328125,-10.330078125
0.086,1.921875,8.48828125,-10.890625
0.0865,3.9638671875,6.88671875,-11.3310546875
0.087,6.1259765625,4.4443359375,-10.9306640625
0.0875,8.6484375,1.8818359375,-10.8505859375
0.088,10.810546875,-0.6806640625,-10.5302734375
0.0885,10.890625,-2.162109375,-9.1689453125
0.089,11.69140625,-3.0830078125,-9.048828125
0.0895,11.6513671875,-5.6455078125,-6.56640625
0.09,11.1708984375,-7.287109375,-4.2841796875
0.0905,11.3310546875,-9.76953125,-1.9619140625
0.091,10.2099609375,-10.6904296875,0.240234375
0.0915,9.208984375,-10.5703125,1.201171875
0.092,8.16796875,-11.0107421875,2.72265625
0.0925,5.3251953125,-10.41015625,5.044921875
0.093,3.123046875,-10.1298828125,7.0068359375
0.0935,0.80078125,-10.08984375,9.208984375
0.094,-1.1611328125,-8.6884765625,9.6494140625
0.0945,-2.0419921875,-8.328125,10.1298828125
0.095,-4.3642578125,-6.3662109375,10.4501953125
0.0955,-6.486328125,-3.923828125,10.08984375
0.096,-9.0087890625,-1.44140625,10.009765625
0.0965,-10.7705078125,0.80078125,9.5693359375
0.097,-10.810546875,2.0419921875,8.2880859375
0.0975,-11.451171875,3.203125,7.767578125
0.098,-11.4111328125,5.92578125,5.125
0.0985,-10.970703125,7.52734375,3.04296875
0.099,-11.05078125,9.8896484375,0.80078125
0.0995,-9.8095703125,10.5302734375,-1.28125
0.1,-8.80859375,10.41015625,-2.162109375
0.1005,-7.3671875,10.73046875,-4.00390625
0.101,-4.564453125,10.2099609375,-6.2861328125
0.1015,-2.3623046875,9.9296875,-8.2080078125
0.102,0.0,9.689453125,-10.25
0.1025,1.681640625,8.2880859375,-10.5302734375
0.103,2.6826171875,7.767578125,-10.890625
0.1035,5.4052734375,5.365234375,-11.1708984375
0.104,7.3671875,3.0029296875,-10.73046875
0.1045,9.609375,0.560546875,-10.5703125
0.105,11.2109375,-1.5615234375,-10.0498046875
0.1055,11.2109375,-2.962890625,-8.6884765625
0.106,11.6513671875,-4.3642578125,-7.7275390625
0.1065,11.611328125,-7.046875,-4.9248046875
0.107,11.05078125,-8.48828125,-2.962890625
0.1075,11.0107421875,-10.5703125,-0.80078125
0.108,9.609375,-11.05078125,1.2412109375
0.1085,8.328125,-10.7705078125,2.2421875
0.109,6.486328125,-10.970703125,4.4443359375
0.1095,3.763671875,-10.41015625,6.6064453125
0.11,1.6416015625,-10.009765625,8.328125
0.1105,-0.640625,-9.7294921875,10.2099609375
0.111,-2.322265625,-8.16796875,10.2900390625
0.1115,-3.603515625,-7.126953125,10.490234375
0.112,-6.6064453125,-4.484375,10.7705078125
0.1125,-8.48828125,-2.08203125,10.1298828125
0.113,-10.330078125,0.080078125,9.849609375
0.1135,-11.69140625,1.921875,9.1689453125
0.114,-11.53125,3.603515625,7.52734375
0.1145,-11.771484375,5.28515625,6.1259765625
0.115,-11.7314453125,7.9677734375,3.4033203125
0.1155,-10.890625,9.12890625,1.4013671875
0.116,-10.8505859375,10.890625,-0.6005859375
0.1165,-9.2490234375,11.2509765625,-2.6025390625
0.117,-7.5673828125,10.7705078125,-3.84375
0.1175,-5.4453125,10.9306640625,-6.1259765625
0.118,-2.7626953125,10.3701171875,-8.2880859375
0.1185,-0.80078125,9.7294921875,-9.609375
0.119,1.361328125,9.4091796875,-11.291015625
0.1195,3.203125,7.5673828125,-11.291015625
0.12,4.724609375,6.166015625,-11.291015625
0.1205,7.6875,3.36328125,-11.5712890625
0.121,9.44921875,0.80078125,-10.650390625
0.1215,11.0107421875,-1.041015625,-10.330078125
0.122,12.1318359375,-2.8828125,-9.609375
0.1225,11.8115234375,-4.6044921875,-7.5673828125
0.123,11.8916015625,-6.40625,-5.8857421875
0.1235,11.8115234375,-8.96875,-3.203125
0.124,10.6904296875,-9.8095703125,-1.2412109375
0.1245,10.6103515625,-11.37109375,0.48046875
0.125,8.728515625,-11.4912109375,2.6025390625
0.1255,6.806640625,-10.890625,3.923828125
0.126,4.6044921875,-10.970703125,6.3662109375
0.1265,2.001953125,-10.330078125,8.2880859375
0.127,0.240234375,-9.5693359375,9.2490234375
0.1275,-1.8017578125,-9.2490234375,10.810546875
0.128,-3.8037109375,-7.0869140625,10.6103515625
0.1285,-5.4052734375,-5.365234375,10.41015625
0.129,-8.48828125,-2.72265625,10.7705078125
0.1295,-9.8095703125,-0.2802734375,9.609375
0.13,-11.0908203125,1.3212890625,9.369140625
0.1305,-11.9716796875,3.123046875,8.4482421875
0.131,-11.53125,4.9248046875,6.2060546875
0.1315,-11.5712890625,6.8466796875,4.404296875
0.132,-11.4912109375,9.2490234375,1.841796875
0.1325,-10.1298828125,9.76953125,0.0
0.133,-10.1298828125,11.130859375,-1.4814453125
0.1335,-8.0078125,11.0107421875,-3.603515625
0.134,-6.0458984375,10.41015625,-5.0048828125
0.1345,-3.8037109375,10.5302734375,-7.447265625
0.135,-1.3212890625,9.7294921875,-9.12890625
0.1355,0.3203125,9.0888671875,-9.9697265625
0.136,2.2021484375,8.6083984375,-11.2509765625
0.1365,4.1240234375,6.40625,-11.0107421875
0.137,6.005859375,4.4443359375,-10.890625
0.1375,8.888671875,1.8017578125,-11.0908203125
0.138,9.9296875,-0.5205078125,-9.76953125
0.1385,11.130859375,-1.6416015625,-9.8095703125
0.139,11.69140625,-3.5634765625,-8.5283203125
0.1395,11.2509765625,-5.28515625,-6.3662109375
0.14,11.37109375,-7.4072265625,-4.3642578125
0.1405,11.130859375,-9.4892578125,-2.001953125
0.141,9.8896484375,-9.8896484375,-0.3203125
0.1415,9.849609375,-11.05078125,1.041015625
0.142,7.4072265625,-10.73046875,3.1630859375
0.1425,5.4853515625,-10.25,4.64453125
0.143,3.2431640625,-10.490234375,7.1669921875
0.1435,0.9208984375,-9.529296875,8.568359375
0.144,-0.6005859375,-9.048828125,9.44921875
0.1445,-2.4423828125,-8.2880859375,10.4501953125
0.145,-4.4443359375,-6.0859375,10.08984375
0.1455,-6.6064453125,-3.8837890625,10.08984375
0.146,-9.3291015625,-1.3212890625,10.2099609375
0.1465,-10.0498046875,0.8408203125,8.888671875
0.147,-11.1708984375,1.7216796875,9.048828125
0.1475,-11.53125,3.763671875,7.3671875
0.148,-11.0908203125,5.60546875,5.0849609375
0.1485,-11.291015625,7.9677734375,3.0029296875
0.149,-10.810546875,9.849609375,0.6005859375
0.1495,-9.609375,10.009765625,-0.9609375
0.15,-9.4091796875,11.0107421875,-2.162109375
0.1505,-6.7666015625,10.5302734375,-4.404296875
0.151,-4.6044921875,10.08984375,-6.166015625
0.1515,-2.322265625,10.3701171875,-8.728515625
0.152,0.1201171875,9.0888671875,-9.76953125
0.1525,1.28125,8.728515625,-10.5302734375
0.153,3.1630859375,7.607421875,-11.291015625
0.1535,5.365234375,5.125,-10.970703125
0.154,7.7275390625,2.7626953125,-10.890625
0.1545,10.330078125,0.1201171875,-10.810546875
0.155,10.73046875,-1.681640625,-9.369140625
0.1555,11.611328125,-2.5224609375,-9.4892578125
0.156,11.8115234375,-4.8447265625,-7.3671875
0.1565,11.291015625,-6.7265625,-4.9248046875
0.157,11.4912109375,-9.2490234375,-2.642578125
0.1575,10.650390625,-10.73046875,-0.2802734375
0.158,9.44921875,-10.6103515625,1.041015625
0.1585,8.9287109375,-11.291015625,2.2421875
0.159,6.0458984375,-10.7705078125,4.64453125
0.1595,3.68359375,-10.25,6.5263671875
0.16,1.4013671875,-10.4501953125,9.0087890625
0.1605,-0.9208984375,-8.96875,9.7294921875
0.161,-1.8818359375,-8.6884765625,10.2099609375
0.1615,-3.84375,-7.1669921875,10.6904296875
0.162,-6.166015625,-4.5244140625,10.330078125
0.1625,-8.6083984375,-1.9619140625,10.2099609375
0.163,-10.890625,0.560546875,9.9296875
0.1635,-10.970703125,2.0419921875,8.48828125
0.164,-11.69140625,2.962890625,8.328125
0.1645,-11.8115234375,5.5654296875,5.8857421875
0.165,-11.2509765625,7.287109375,3.5634765625
0.1655,-11.3310546875,9.7294921875,1.2412109375
0.166,-10.330078125,10.8505859375,-1.041015625
0.1665,-9.0888671875,10.6103515625,-2.08203125
0.167,-8.2080078125,11.0908203125,-3.5234375
0.1675,-5.28515625,10.5302734375,-5.92578125
0.168,-2.9228515625,10.0498046875,-7.8076171875
0.1685,-0.6005859375,10.0498046875,-10.1298828125
0.169,1.4814453125,8.568359375,-10.6103515625
0.1695,2.2822265625,8.1279296875,-10.970703125
0.17,4.6044921875,6.2060546875,-11.4111328125
0.1705,6.806640625,3.68359375,-10.890625
0.171,9.1689453125,1.201171875,-10.73046875
0.1715,11.130859375,-1.1611328125,-10.330078125
0.172,11.1708984375,-2.6025390625,-8.9287109375
0.1725,11.7314453125,-3.68359375,-8.408203125
0.173,11.771484375,-6.3662109375,-5.765625
0.1735,11.1708984375,-7.8876953125,-3.6435546875
0.174,11.1708984375,-10.2099609375,-1.3212890625
0.1745,10.08984375,-11.05078125,0.7607421875
0.175,8.8486328125,-10.7705078125,1.76171875
0.1755,7.52734375,-11.0908203125,3.4833984375
0.176,4.6044921875,-10.5703125,5.8857421875
0.1765,2.40234375,-10.1298828125,7.6875
0.177,0.080078125,-10.009765625,9.849609375
0.1775,-1.8017578125,-8.6083984375,10.169921875
0.178,-2.7626953125,-7.9677734375,10.330078125
0.1785,-5.4453125,-5.60546875,10.73046875
0.179,-7.5673828125,-3.0830078125,10.2099609375
0.1795,-9.6494140625,-0.720703125,9.9296875
0.18,-11.37109375,1.44140625,9.5693359375
0.1805,-11.3310546875,2.9228515625,8.0078125
0.181,-11.7314453125,4.32421875,7.046875
0.1815,-11.771484375,7.046875,4.32421875
0.182,-11.05078125,8.4482421875,2.2421875
0.1825,-11.0107421875,10.490234375,0.1201171875
0.183,-9.76953125,11.1708984375,-1.9619140625
0.1835,-8.2880859375,10.810546875,-3.0830078125
0.184,-6.5263671875,11.0107421875,-5.125
0.1845,-3.7236328125,10.5302734375,-7.52734375
0.185,-1.6015625,9.9296875,-9.0087890625
0.1855,0.6806640625,9.689453125,-10.970703125
0.186,2.5224609375,8.087890625,-11.2509765625
0.1865,3.8037109375,7.046875,-11.291015625
0.187,6.7666015625,4.484375,-11.611328125
0.1875,8.80859375,1.8818359375,-10.9306640625
0.188,10.5302734375,-0.400390625,-10.490234375
0.1885,12.01171875,-2.2822265625,-10.08984375
0.189,11.8515625,-4.00390625,-8.16796875
0.1895,12.01171875,-5.5654296875,-6.8466796875
0.19,12.01171875,-8.2880859375,-4.1240234375
0.1905,11.05078125,-9.4892578125,-1.9619140625
0.191,10.9306640625,-11.0908203125,0.0
0.1915,9.44921875,-11.611328125,2.0419921875
0.192,7.52734375,-11.05078125,3.443359375
0.1925,5.60546875,-11.2109375,5.5654296875
0.193,2.802734375,-10.7705078125,7.84765625
0.1935,0.80078125,-9.9296875,8.96875
0.194,-1.28125,-9.76953125,10.73046875
0.1945,-3.2431640625,-7.8076171875,10.8505859375
0.195,-4.7646484375,-6.2861328125,10.73046875
0.1955,-7.767578125,-3.603515625,11.0107421875
0.196,-9.609375,-1.0009765625,10.169921875
0.1965,-10.890625,0.9609375,9.609375
0.197,-12.171875,2.6826171875,9.0888671875
0.1975,-11.8515625,4.6044921875,6.88671875
0.198,-11.8515625,6.24609375,5.2451171875
0.1985,-11.931640625,8.96875,2.6025390625
0.199,-10.650390625,9.8095703125,0.4404296875
0.1995,-10.5703125,11.2109375,-1.1611328125
0.2,-8.8486328125,11.53125,-3.2431640625
0.2005,-6.7666015625,10.810546875,-4.6845703125
0.201,-4.6845703125,10.890625,-6.9267578125
0.2015,-1.9619140625,10.330078125,-9.0888671875
0.202,0.0,9.2890625,-9.9697265625
0.2025,1.76171875,9.208984375,-11.53125
0.203,3.8837890625,7.0869140625,-11.4912109375
0.2035,5.525390625,5.3251953125,-11.2509765625
0.204,8.5283203125,2.6826171875,-11.53125
0.2045,10.0498046875,0.0,-10.330078125
0.205,11.1708984375,-1.521484375,-9.9697265625
0.2055,12.171875,-3.2431640625,-9.2890625
0.206,11.771484375,-5.125,-6.966796875
0.2065,11.69140625,-6.9267578125,-5.1650390625
0.207,11.7314453125,-9.4892578125,-2.642578125
0.2075,10.25,-10.009765625,-0.6005859375
0.208,10.25,-11.3310546875,0.8408203125
0.2085,8.2880859375,-11.3310546875,2.9228515625
0.209,6.166015625,-10.73046875,4.404296875
0.2095,4.00390625,-10.8505859375,6.6865234375
0.21,1.44140625,-10.2099609375,8.568359375
0.2105,-0.3203125,-9.2490234375,9.3291015625
0.211,-2.0419921875,-8.9287109375,10.73046875
0.2115,-4.1640625,-6.646484375,10.5703125
0.212,-6.0859375,-4.64453125,10.3701171875
0.2125,-8.96875,-2.08203125,10.6904296875
0.213,-10.1298828125,0.48046875,9.3291015625
0.2135,-11.130859375,1.5615234375,9.1689453125
0.214,-11.8916015625,3.36328125,8.16796875
0.2145,-11.451171875,5.28515625,5.765625
0.215,-11.4111328125,7.287109375,3.763671875
0.2155,-11.37109375,9.6494140625,1.3212890625
0.216,-9.849609375,9.9697265625,-0.640625
0.2165,-9.8896484375,11.130859375,-1.76171875
0.217,-7.5673828125,10.890625,-4.00390625
0.2175,-5.4453125,10.2900390625,-5.6455078125
0.218,-3.2431640625,10.5302734375,-8.0078125
0.2185,-0.6806640625,9.609375,-9.6494140625
0.219,0.8408203125,8.888671875,-10.25
0.2195,2.5224609375,8.328125,-11.4111328125
0.22,4.724609375,6.005859375,-11.1708984375
0.2205,6.8466796875,3.7236328125,-10.9306640625
0.221,9.7294921875,1.12109375,-11.1708984375
0.2215,10.5302734375,-1.2412109375,-9.6494140625
0.222,11.451171875,-2.1220703125,-9.6494140625
0.2225,11.931640625,-4.083984375,-8.2080078125
0.223,11.4912109375,-6.0859375,-5.765625
0.2235,11.4912109375,-8.2880859375,-3.603515625
0.224,11.2109375,-10.3701171875,-1.1611328125
