wavelength,x,y,z
0.0,-14.729370117188,-5.3201904296875,19.263793945312
0.0005,-11.766479492188,-8.0028076171875,19.103637695312
0.001,-7.8826904296875,-11.726440429688,18.743286132812
0.0015,-3.7586669921875,-14.769409179688,18.062622070312
0.002,0.7657470703125,-17.251831054688,16.300903320312
0.0025,3.8087158203125,-18.533081054688,14.739379882812
0.003,6.5714111328125,-18.933471679688,12.537231445312
0.0035,9.4542236328125,-18.933471679688,9.8946533203125
0.004,13.418090820312,-18.212768554688,5.3702392578125
0.0045,16.380981445312,-17.131713867188,1.4864501953125
0.005,18.422973632812,-15.610229492188,-2.0369873046875
0.0055,19.423950195312,-13.728393554688,-4.9197998046875
0.006,19.383911132812,-10.845581054688,-7.7225341796875
0.0065,19.343872070312,-7.4422607421875,-11.165893554688
0.007,18.943481445312,-3.7186279296875,-14.569213867188
0.0075,17.662231445312,0.3653564453125,-17.291870117188
0.008,15.940551757812,3.5284423828125,-18.733276367188
0.0085,13.778442382812,6.3712158203125,-19.534057617188
0.009,10.815551757812,9.2540283203125,-19.494018554688
0.0095,5.9307861328125,13.177856445312,-18.693237304688
0.01,1.9268798828125,16.100708007812,-17.812377929688
0.0105,-2.1971435546875,18.222778320312,-16.090698242188
0.011,-5.1600341796875,19.223754882812,-14.248901367188
0.0115,-8.0828857421875,19.183715820312,-11.526245117188
0.012,-11.286010742188,19.023559570312,-8.3231201171875
0.0125,-14.929565429688,18.222778320312,-4.0389404296875
0.013,-17.892456054688,16.661254882812,0.3653564453125
0.0135,-19.453979492188,14.979614257812,3.5284423828125
0.014,-20.174682617188,12.777465820312,6.4913330078125
0.0145,-20.054565429688,9.7344970703125,9.3741455078125
0.015,-19.614135742188,5.6104736328125,13.177856445312
0.0155,-19.013549804688,1.9268798828125,16.260864257812
0.016,-17.532104492188,-2.1571044921875,18.783325195312
0.0165,-15.530151367188,-5.2000732421875,19.904418945312
0.017,-12.887573242188,-8.0828857421875,20.104614257812
0.0175,-9.5242919921875,-11.205932617188,20.024536132812
0.018,-4.3592529296875,-14.969604492188,18.903442382812
0.0185,0.1251220703125,-17.652221679688,17.301879882812
0.019,3.6885986328125,-19.373901367188,15.660278320312
0.0195,6.6514892578125,-20.014526367188,13.578247070312
0.02,9.6544189453125,-19.654174804688,10.415161132812
0.0205,13.297973632812,-19.133666992188,6.4112548828125
0.021,16.581176757812,-18.212768554688,2.4073486328125
0.0215,19.103637695312,-16.370971679688,-1.9569091796875
0.022,20.144653320312,-14.409057617188,-4.8397216796875
0.0225,20.464965820312,-11.806518554688,-7.8426513671875
0.023,20.304809570312,-8.6033935546875,-10.885620117188
0.0235,19.664184570312,-4.1990966796875,-14.649291992188
0.024,18.503051757812,-0.3553466796875,-17.411987304688
0.0245,16.941528320312,3.3282470703125,-19.574096679688
0.025,14.699340820312,6.2510986328125,-20.334838867188
0.0255,11.456176757812,9.3341064453125,-20.174682617188
0.026,7.6124267578125,12.777465820312,-19.854370117188
0.0265,2.8477783203125,16.260864257812,-18.733276367188
0.027,-1.8367919921875,18.583129882812,-16.691284179688
0.0275,-4.8797607421875,19.784301757812,-15.089721679688
0.028,-7.8026123046875,20.144653320312,-12.767456054688
0.0285,-10.925659179688,19.664184570312,-9.3240966796875
0.029,-14.609252929688,18.863403320312,-4.9998779296875
0.0295,-17.652221679688,17.662231445312,-0.9158935546875
0.03,-19.934448242188,15.780395507812,3.2081298828125
0.0305,-20.494995117188,13.538208007812,6.0108642578125
0.031,-20.655151367188,10.575317382812,9.1339111328125
0.0315,-20.374877929688,7.0118408203125,12.497192382812
0.032,-19.694213867188,2.8477783203125,15.980590820312
0.0325,-18.092651367188,-1.2762451171875,18.503051757812
0.033,-16.411010742188,-4.6395263671875,20.144653320312
0.0335,-14.048706054688,-7.4822998046875,20.705200195312
0.034,-10.525268554688,-10.525268554688,20.304809570312
0.0345,-6.1209716796875,-14.088745117188,19.544067382812
0.035,-1.4764404296875,-17.291870117188,18.382934570312
0.0355,3.0079345703125,-19.373901367188,16.300903320312
0.036,5.7706298828125,-19.814331054688,14.459106445312
0.0365,8.8536376953125,-20.254760742188,11.776489257812
0.037,12.296997070312,-19.734252929688,8.0128173828125
0.0375,15.820434570312,-18.853393554688,3.6885986328125
0.038,18.543090820312,-17.251831054688,-0.5155029296875
0.0385,20.424926757812,-15.410034179688,-4.1590576171875
0.039,20.705200195312,-12.927612304688,-6.9217529296875
0.0395,20.625122070312,-9.6844482421875,-10.124877929688
0.04,20.144653320312,-5.7606201171875,-13.608276367188
0.0405,19.504028320312,-1.7967529296875,-16.931518554688
0.041,17.622192382812,2.2872314453125,-19.213745117188
0.0415,15.660278320312,5.4102783203125,-20.334838867188
0.042,13.057739257812,8.3731689453125,-20.775268554688
0.0425,8.9737548828125,11.816528320312,-20.254760742188
0.043,4.4493408203125,15.219848632812,-19.253784179688
0.0435,-0.1551513671875,18.062622070312,-17.732299804688
0.044,-4.1190185546875,19.864379882812,-15.930541992188
0.0445,-6.8817138671875,20.184692382812,-13.608276367188
0.045,-9.9647216796875,20.144653320312,-10.765502929688
0.0455,-13.648315429688,19.504028320312,-6.5614013671875
0.046,-17.051635742188,18.382934570312,-2.2371826171875
0.0465,-19.413940429688,16.581176757812,1.9669189453125
0.047,-20.815307617188,14.659301757812,5.2501220703125
0.0475,-21.015502929688,11.896606445312,8.1729736328125
0.048,-20.855346679688,8.2930908203125,11.656372070312
0.0485,-20.174682617188,4.1690673828125,15.059692382812
0.049,-19.213745117188,0.1251220703125,18.102661132812
0.0495,-17.331909179688,-3.8787841796875,20.304809570312
0.05,-15.049682617188,-6.6414794921875,20.785278320312
0.0505,-12.246948242188,-9.6444091796875,21.105590820312
0.051,-7.6424560546875,-13.448120117188,20.424926757812
0.0515,-2.9178466796875,-16.691284179688,19.183715820312
0.052,1.6065673828125,-19.013549804688,17.301879882812
0.0525,5.2100830078125,-20.655151367188,15.540161132812
0.053,8.0528564453125,-20.655151367188,12.897583007812
0.0535,11.296020507812,-20.374877929688,9.5743408203125
0.054,15.059692382812,-19.574096679688,5.2901611328125
0.0545,18.262817382812,-18.252807617188,0.8057861328125
0.055,20.424926757812,-16.330932617188,-3.2381591796875
0.0555,21.145629882812,-14.088745117188,-6.2410888671875
0.056,21.185668945312,-11.366088867188,-9.3240966796875
0.0565,20.945434570312,-7.0418701171875,-13.127807617188
0.057,20.144653320312,-3.1580810546875,-16.330932617188
0.0575,18.743286132812,1.0460205078125,-18.933471679688
0.058,16.901489257812,4.8497314453125,-21.015502929688
0.0585,14.018676757812,7.6925048828125,-21.015502929688
0.059,10.895629882812,10.815551757812,-21.095581054688
0.0595,6.0108642578125,14.779418945312,-20.294799804688
0.06,1.2462158203125,17.942504882812,-18.893432617188
0.0605,-3.0379638671875,19.864379882812,-16.851440429688
0.061,-6.2811279296875,20.945434570312,-14.929565429688
0.0615,-9.3240966796875,20.865356445312,-12.046752929688
0.062,-12.927612304688,20.224731445312,-8.0428466796875
0.0625,-16.370971679688,19.463989257812,-3.9188232421875
0.063,-19.453979492188,17.782348632812,0.7657470703125
0.0635,-21.135620117188,15.820434570312,4.6094970703125
0.064,-21.536010742188,13.057739257812,7.4522705078125
0.0645,-21.736206054688,10.094848632812,10.735473632812
0.065,-21.135620117188,5.4102783203125,14.739379882812
0.0655,-20.214721679688,1.3663330078125,17.902465820312
0.066,-18.372924804688,-2.6375732421875,20.104614257812
0.0665,-16.531127929688,-6.1610107421875,21.786254882812
0.067,-13.247924804688,-9.1239013671875,21.586059570312
0.0675,-9.4442138671875,-12.527221679688,21.225708007812
0.068,-4.6795654296875,-16.130737304688,20.304809570312
0.0685,0.4854736328125,-19.173706054688,18.463012695312
0.069,4.4893798828125,-20.815307617188,16.380981445312
0.0695,7.4522705078125,-21.295776367188,14.098754882812
0.07,10.615356445312,-21.255737304688,11.175903320312
0.0705,14.699340820312,-20.294799804688,6.3311767578125
0.071,17.862426757812,-19.213745117188,2.2071533203125
0.0715,20.424926757812,-17.452026367188,-2.2371826171875
0.072,21.986450195312,-15.329956054688,-5.7606201171875
0.0725,21.826293945312,-12.206909179688,-8.8035888671875
0.073,21.826293945312,-8.9237060546875,-12.206909179688
0.0735,21.105590820312,-4.2391357421875,-16.010620117188
0.074,19.904418945312,0.0850830078125,-19.173706054688
0.0745,17.822387695312,3.9688720703125,-20.975463867188
0.075,15.620239257812,7.1719970703125,-22.056518554688
0.0755,12.417114257812,10.295043945312,-22.056518554688
0.076,7.3721923828125,14.338989257812,-21.175659179688
0.0765,3.0079345703125,17.462036132812,-20.174682617188
0.077,-2.0770263671875,20.184692382812,-18.052612304688
0.0775,-5.8406982421875,21.626098632812,-16.010620117188
0.078,-8.8035888671875,21.505981445312,-13.127807617188
0.0785,-12.046752929688,21.465942382812,-10.164916992188
0.079,-16.330932617188,20.344848632812,-4.8797607421875
0.0795,-19.494018554688,18.823364257812,-0.3153076171875
0.08,-21.536010742188,16.781372070312,3.6885986328125
0.0805,-22.697143554688,14.459106445312,7.1319580078125
0.081,-22.456909179688,11.055786132812,10.295043945312
0.0815,-22.176635742188,7.0518798828125,14.138793945312
0.082,-21.335815429688,2.8077392578125,17.582153320312
0.0825,-19.774291992188,-1.8367919921875,20.625122070312
0.083,-17.452026367188,-5.6405029296875,22.186645507812
0.0835,-14.769409179688,-8.6834716796875,22.546997070312
0.084,-11.526245117188,-11.846557617188,22.546997070312
0.0845,-5.6805419921875,-16.130737304688,21.265747070312
0.085,-1.0760498046875,-19.093627929688,19.784301757812
0.0855,3.5284423828125,-21.255737304688,17.662231445312
0.086,7.1319580078125,-22.376831054688,15.420043945312
0.0865,10.335083007812,-21.896362304688,12.016723632812
0.087,13.778442382812,-21.536010742188,8.4532470703125
0.0875,17.742309570312,-20.454956054688,3.5684814453125
0.088,20.825317382812,-18.533081054688,-1.4364013671875
0.0885,22.426879882812,-16.370971679688,-5.1199951171875
0.089,22.987426757812,-13.648315429688,-8.3631591796875
0.0895,22.707153320312,-10.244995117188,-11.566284179688
0.09,22.066528320312,-5.4403076171875,-15.770385742188
0.0905,21.065551757812,-1.4364013671875,-18.813354492188
0.091,19.263793945312,3.0079345703125,-21.455932617188
0.0915,16.821411132812,6.7315673828125,-22.777221679688
0.092,13.418090820312,9.9346923828125,-22.577026367188
0.0925,9.9346923828125,13.257934570312,-22.536987304688
0.093,4.1290283203125,17.421997070312,-21.135620117188
0.0935,-1.0360107421875,20.264770507812,-19.093627929688
0.094,-4.9598388671875,21.866333007812,-17.051635742188
0.0945,-8.3231201171875,22.627075195312,-14.689331054688
0.095,-11.726440429688,22.026489257812,-10.925659179688
0.0955,-15.610229492188,21.225708007812,-6.4813232421875
0.096,-19.093627929688,20.064575195312,-1.9969482421875
0.0965,-21.896362304688,17.822387695312,3.0479736328125
0.097,-23.057495117188,15.500122070312,6.4512939453125
0.0975,-23.257690429688,12.377075195312,9.8546142578125
0.098,-23.057495117188,8.8936767578125,13.097778320312
0.0985,-22.096557617188,3.8087158203125,17.341918945312
0.099,-20.615112304688,-0.6356201171875,20.264770507812
0.0995,-18.653198242188,-4.6795654296875,22.426879882812
0.1,-16.210815429688,-8.0828857421875,23.427856445312
0.1005,-12.206909179688,-11.406127929688,22.827270507812
0.101,-8.0028076171875,-15.049682617188,22.386840820312
0.1015,-2.7176513671875,-18.733276367188,20.985473632812
0.102,2.7276611328125,-21.295776367188,18.503051757812
0.1025,6.2110595703125,-22.456909179688,16.340942382812
0.103,9.5343017578125,-22.777221679688,13.618286132812
0.1035,12.937622070312,-22.136596679688,9.8546142578125
0.104,17.021606445312,-21.015502929688,4.7696533203125
0.1045,20.184692382812,-19.574096679688,0.2852783203125
0.105,22.466918945312,-17.371948242188,-4.2391357421875
0.1055,23.187622070312,-14.769409179688,-7.4422607421875
0.106,23.067504882812,-11.245971679688,-10.885620117188
0.1065,22.707153320312,-7.4422607421875,-14.288940429688
0.107,21.746215820312,-2.9578857421875,-18.332885742188
0.1075,19.864379882812,1.9268798828125,-20.855346679688
0.108,17.702270507812,5.5303955078125,-22.416870117188
0.1085,15.059692382812,8.7735595703125,-23.137573242188
0.109,11.015747070312,12.136840820312,-22.456909179688
0.1095,5.9307861328125,16.020629882812,-21.495971679688
0.11,1.2061767578125,19.223754882812,-20.174682617188
0.1105,-3.8387451171875,21.505981445312,-17.732299804688
0.111,-7.1619873046875,22.146606445312,-15.410034179688
0.1115,-10.285034179688,22.106567382812,-12.367065429688
0.112,-13.728393554688,21.546020507812,-8.6033935546875
0.1125,-17.652221679688,20.304809570312,-3.5584716796875
0.113,-20.575073242188,18.422973632812,1.1260986328125
0.1135,-22.456909179688,16.340942382812,5.0499267578125
0.114,-22.897338867188,13.658325195312,8.1729736328125
0.1145,-22.577026367188,10.014770507812,11.536254882812
0.115,-21.936401367188,5.7706298828125,15.259887695312
0.1155,-21.135620117188,1.5264892578125,18.663208007812
0.116,-19.093627929688,-3.0780029296875,21.225708007812
0.1165,-16.691284179688,-6.3612060546875,22.266723632812
0.117,-14.048706054688,-9.4842529296875,22.667114257812
0.1175,-9.9246826171875,-12.887573242188,22.066528320312
0.118,-4.5194091796875,-16.771362304688,20.745239257812
0.1185,0.2852783203125,-19.614135742188,19.103637695312
0.119,4.6094970703125,-21.696166992188,16.981567382812
0.1195,7.6925048828125,-21.936401367188,14.499145507812
0.12,11.055786132812,-21.696166992188,11.135864257812
0.1205,14.739379882812,-21.135620117188,7.0518798828125
0.121,18.262817382812,-19.894409179688,2.4073486328125
0.1215,20.985473632812,-17.812377929688,-2.2772216796875
0.122,22.266723632812,-15.690307617188,-5.6405029296875
0.1225,22.627075195312,-12.807495117188,-8.9237060546875
0.123,22.226684570312,-9.0037841796875,-12.327026367188
0.1235,21.425903320312,-4.5194091796875,-16.090698242188
0.124,20.344848632812,-0.3553466796875,-19.133666992188
0.1245,18.422973632812,3.9688720703125,-21.536010742188
0.125,15.740356445312,7.0919189453125,-22.056518554688
0.1255,12.577270507812,10.295043945312,-22.216674804688
0.126,8.2130126953125,14.058715820312,-21.696166992188
0.1265,3.0479736328125,17.662231445312,-20.054565429688
0.127,-1.7967529296875,20.104614257812,-18.212768554688
0.1275,-5.4803466796875,21.626098632812,-16.370971679688
0.128,-8.6033935546875,21.786254882812,-13.648315429688
0.1285,-12.006713867188,21.265747070312,-9.9647216796875
0.129,-15.890502929688,20.464965820312,-5.6004638671875
0.1295,-19.213745117188,19.143676757812,-0.9959716796875
0.13,-21.576049804688,16.981567382812,3.6085205078125
0.1305,-22.216674804688,14.579223632812,6.6514892578125
0.131,-22.577026367188,11.536254882812,10.014770507812
0.1315,-22.136596679688,7.4122314453125,13.738403320312
0.132,-21.295776367188,3.0479736328125,17.301879882812
0.1325,-19.694213867188,-1.2362060546875,19.984497070312
0.133,-17.812377929688,-5.1600341796875,22.066528320312
0.1335,-14.969604492188,-8.1629638671875,22.306762695312
0.134,-11.446166992188,-11.406127929688,22.066528320312
0.1345,-6.8817138671875,-15.329956054688,21.385864257812
0.135,-1.5965576171875,-18.613159179688,19.864379882812
0.1355,3.1680908203125,-20.775268554688,17.502075195312
0.136,6.4112548828125,-21.776245117188,15.500122070312
0.1365,9.6143798828125,-21.896362304688,12.657348632812
0.137,13.257934570312,-21.215698242188,8.4932861328125
0.1375,16.861450195312,-20.214721679688,4.1290283203125
0.138,19.904418945312,-18.573120117188,-0.5155029296875
0.1385,22.026489257812,-16.451049804688,-4.7996826171875
0.139,22.266723632812,-13.728393554688,-7.5623779296875
0.1395,22.386840820312,-10.485229492188,-10.965698242188
0.14,21.746215820312,-6.0809326171875,-14.809448242188
0.1405,20.865356445312,-1.8768310546875,-18.212768554688
0.141,18.903442382812,2.4073486328125,-20.494995117188
0.1415,16.861450195312,5.9708251953125,-22.056518554688
0.142,13.818481445312,9.0938720703125,-22.136596679688
0.1425,9.6944580078125,12.537231445312,-21.656127929688
0.143,5.0098876953125,16.100708007812,-20.695190429688
0.1435,0.0050048828125,19.223754882812,-18.973510742188
0.144,-4.3992919921875,21.065551757812,-16.811401367188
0.1445,-7.2821044921875,21.385864257812,-14.489135742188
0.145,-10.565307617188,21.465942382812,-11.526245117188
0.1455,-14.449096679688,20.545043945312,-6.9217529296875
0.146,-17.772338867188,19.383911132812,-2.6375732421875
0.1465,-20.334838867188,17.582153320312,1.7667236328125
0.147,-22.056518554688,15.460083007812,5.5303955078125
0.1475,-22.056518554688,12.497192382812,8.4532470703125
0.148,-21.936401367188,8.9737548828125,11.936645507812
0.1485,-21.215698242188,4.6094970703125,15.580200195312
0.149,-20.174682617188,0.4053955078125,18.823364257812
0.1495,-18.092651367188,-3.7186279296875,20.825317382812
0.15,-15.890502929688,-6.6815185546875,21.706176757812
0.1505,-12.927612304688,-9.7645263671875,21.906372070312
0.151,-8.2030029296875,-13.528198242188,21.065551757812
0.1515,-3.7186279296875,-16.691284179688,19.864379882812
0.152,1.0860595703125,-19.253784179688,18.022583007812
0.1525,4.9698486328125,-21.015502929688,16.060668945312
0.153,7.6925048828125,-20.895385742188,13.418090820312
0.1535,10.855590820312,-20.815307617188,10.415161132812
0.154,14.819458007812,-19.934448242188,5.8106689453125
0.1545,17.942504882812,-18.613159179688,1.4864501953125
0.155,20.104614257812,-16.691284179688,-2.5174560546875
0.1555,21.185668945312,-14.609252929688,-5.6405029296875
0.156,21.225708007812,-11.726440429688,-8.6834716796875
0.1565,20.945434570312,-7.7625732421875,-12.327026367188
0.157,20.224731445312,-3.9188232421875,-15.530151367188
0.1575,18.983520507812,0.2452392578125,-18.332885742188
0.158,17.101684570312,4.0489501953125,-20.334838867188
0.1585,14.459106445312,6.7716064453125,-20.494995117188
0.159,11.776489257812,9.7344970703125,-20.815307617188
0.1595,6.7315673828125,13.738403320312,-19.974487304688
0.16,2.2872314453125,16.781372070312,-18.693237304688
0.1605,-1.8768310546875,18.783325195312,-16.891479492188
0.161,-5.2401123046875,20.184692382812,-15.169799804688
0.1615,-8.0028076171875,20.024536132812,-12.447143554688
0.162,-11.366088867188,19.664184570312,-8.9637451171875
0.1625,-14.889526367188,18.983520507812,-4.9197998046875
0.163,-17.892456054688,17.542114257812,-0.5155029296875
0.1635,-19.814331054688,15.660278320312,3.2081298828125
0.164,-20.334838867188,13.418090820312,5.9708251953125
0.1645,-20.535034179688,10.695434570312,8.9337158203125
0.165,-20.094604492188,6.3311767578125,12.857543945312
0.1655,-19.373901367188,2.6475830078125,15.900512695312
0.166,-17.972534179688,-1.1561279296875,18.222778320312
0.1665,-16.330932617188,-4.5994873046875,20.064575195312
0.167,-13.528198242188,-7.2420654296875,19.984497070312
0.1675,-10.445190429688,-10.285034179688,20.024536132812
0.168,-5.7606201171875,-14.088745117188,19.263793945312
0.1685,-1.1160888671875,-17.051635742188,17.782348632812
0.169,2.6075439453125,-18.853393554688,16.020629882812
0.1695,5.5303955078125,-19.614135742188,14.218872070312
0.17,8.4532470703125,-19.694213867188,11.536254882812
0.1705,12.176879882812,-19.053588867188,7.3721923828125
0.171,15.299926757812,-18.332885742188,3.7686767578125
0.1715,17.942504882812,-16.851440429688,-0.3553466796875
0.172,19.664184570312,-15.049682617188,-3.7586669921875
0.1725,19.784301757812,-12.527221679688,-6.4012451171875
0.173,19.984497070312,-9.7244873046875,-9.4442138671875
0.1735,19.504028320312,-5.4403076171875,-13.287963867188
0.174,18.583129882812,-1.8768310546875,-16.451049804688
0.1745,17.101684570312,1.9268798828125,-18.212768554688
0.175,15.339965820312,4.9698486328125,-19.574096679688
0.1755,12.497192382812,7.7725830078125,-19.614135742188
0.176,8.4932861328125,11.255981445312,-19.213745117188
0.1765,4.5294189453125,14.459106445312,-18.653198242188
0.177,-0.1551513671875,17.221801757812,-16.971557617188
0.1775,-3.5584716796875,18.863403320312,-15.369995117188
0.178,-6.1610107421875,19.183715820312,-13.127807617188
