wavelength,x,y,z
0.0,-22.58203125,13.93359375,7.6875
0.0005,-22.7822265625,10.6103515625,11.05078125
0.001,-22.181640625,6.1259765625,15.0146484375
0.0015,-21.1806640625,1.8818359375,18.337890625
0.002,-19.298828125,-2.5224609375,20.7802734375
0.0025,-17.1767578125,-6.3662109375,22.5419921875
0.003,-13.9736328125,-9.4892578125,22.58203125
0.0035,-10.009765625,-12.97265625,22.26171875
0.004,-5.1650390625,-16.65625,21.1806640625
0.0045,0.16015625,-19.8994140625,19.4990234375
0.005,4.6044921875,-21.7412109375,17.13671875
0.0055,7.8076171875,-22.3017578125,14.734375
0.006,11.2509765625,-22.421875,11.6513671875
0.0065,15.1748046875,-21.5009765625,7.046875
0.007,18.41796875,-20.419921875,2.8427734375
0.0075,21.2607421875,-18.578125,-1.8017578125
0.008,22.8623046875,-16.2158203125,-5.7255859375
0.0085,22.8623046875,-13.1328125,-8.80859375
0.009,22.8623046875,-9.6494140625,-12.33203125
0.0095,21.9814453125,-4.884765625,-16.2158203125
0.01,20.8603515625,-0.48046875,-19.5390625
0.0105,18.5380859375,3.84375,-21.5009765625
0.011,16.1357421875,7.3671875,-22.7021484375
0.0115,12.7724609375,10.6904296875,-22.7421875
0.012,7.9677734375,14.57421875,-21.94140625
0.0125,3.443359375,17.77734375,-20.8203125
0.013,-1.841796875,20.66015625,-18.818359375
0.0135,-5.9658203125,22.26171875,-16.5361328125
0.014,-9.0087890625,22.26171875,-13.693359375
0.0145,-12.33203125,22.341796875,-10.6904296875
0.015,-16.5361328125,21.2607421875,-5.60546875
0.0155,-19.4990234375,19.859375,-1.0810546875
0.016,-21.9013671875,17.7373046875,3.2431640625
0.0165,-23.142578125,15.21484375,6.88671875
0.017,-23.0224609375,11.8115234375,10.08984375
0.0175,-22.822265625,7.8076171875,13.93359375
0.018,-21.861328125,3.443359375,17.4169921875
0.0185,-20.4599609375,-1.2412109375,20.6201171875
0.019,-17.9375,-5.4052734375,22.3818359375
0.0195,-15.1748046875,-8.568359375,22.7822265625
0.02,-11.931640625,-11.8515625,22.982421875
0.0205,-6.326171875,-16.0556640625,21.78125
0.021,-1.681640625,-19.05859375,20.2998046875
0.0215,3.1630859375,-21.380859375,18.1376953125
0.022,7.046875,-22.7021484375,15.85546875
0.0225,10.2099609375,-22.3818359375,12.572265625
0.023,13.61328125,-22.1416015625,9.1689453125
0.0235,17.6171875,-21.140625,4.32421875
0.024,20.7802734375,-19.298828125,-0.640625
0.0245,22.4619140625,-17.056640625,-4.484375
0.025,23.0625,-14.5341796875,-7.8876953125
0.0255,23.0224609375,-11.0107421875,-11.05078125
0.026,22.421875,-6.2060546875,-15.3349609375
0.0265,21.380859375,-2.2021484375,-18.2978515625
0.027,19.6591796875,2.322265625,-21.1005859375
0.0275,17.13671875,6.3662109375,-22.6220703125
0.028,13.7734375,9.44921875,-22.4619140625
0.0285,10.3701171875,12.7724609375,-22.501953125
0.029,4.7646484375,16.9365234375,-21.220703125
0.0295,-0.3203125,19.859375,-19.37890625
0.03,-4.3642578125,21.541015625,-17.296875
0.0305,-7.8876953125,22.501953125,-15.0146484375
0.031,-11.1708984375,22.0615234375,-11.53125
0.0315,-14.89453125,21.380859375,-7.287109375
0.032,-18.2578125,20.33984375,-3.0830078125
0.0325,-21.140625,18.3779296875,1.76171875
0.033,-22.4619140625,15.9755859375,5.4052734375
0.0335,-22.662109375,13.0126953125,8.568359375
0.034,-22.662109375,9.849609375,11.771484375
0.0345,-21.8212890625,4.7646484375,16.015625
0.035,-20.5400390625,0.6005859375,18.978515625
0.0355,-18.6181640625,-3.4833984375,21.1005859375
0.036,-16.3759765625,-7.046875,22.4619140625
0.0365,-12.6923828125,-10.169921875,22.021484375
0.037,-8.6884765625,-13.7333984375,21.701171875
0.0375,-3.8037109375,-17.3369140625,20.6201171875
0.038,1.4814453125,-20.1396484375,18.4580078125
0.0385,5.0849609375,-21.4208984375,16.3359375
0.039,8.3681640625,-21.94140625,13.8935546875
0.0395,11.53125,-21.78125,10.73046875
0.04,15.6552734375,-20.7802734375,5.765625
0.0405,18.6982421875,-19.5791015625,1.6015625
0.041,21.060546875,-17.6572265625,-2.6025390625
0.0415,22.0615234375,-15.2548828125,-5.9658203125
0.042,21.9814453125,-11.9716796875,-9.12890625
0.0425,21.9013671875,-8.48828125,-12.5322265625
0.043,21.140625,-4.00390625,-16.3759765625
0.0435,19.6591796875,0.6005859375,-19.3388671875
0.044,17.4970703125,4.32421875,-20.9404296875
0.0445,15.134765625,7.8076171875,-21.8212890625
0.045,11.53125,10.7705078125,-21.6611328125
0.0455,6.5263671875,14.7744140625,-20.7802734375
0.046,2.162109375,17.8974609375,-19.779296875
0.0465,-2.72265625,20.3798828125,-17.6572265625
0.047,-6.166015625,21.380859375,-15.455078125
0.0475,-9.369140625,21.4208984375,-12.5322265625
0.048,-12.572265625,21.2607421875,-9.4091796875
0.0485,-16.65625,20.1796875,-4.484375
0.049,-19.5791015625,18.5380859375,0.16015625
0.0495,-21.380859375,16.576171875,3.84375
0.05,-22.1416015625,14.09375,7.046875
0.0505,-21.9013671875,10.650390625,10.2099609375
0.051,-21.62109375,6.4462890625,14.09375
0.0515,-20.740234375,2.3623046875,17.4169921875
0.052,-19.0986328125,-2.08203125,20.1796875
0.0525,-16.6962890625,-5.7255859375,21.380859375
0.053,-13.853515625,-8.7685546875,21.78125
0.0535,-10.41015625,-11.9716796875,21.701171875
0.054,-4.884765625,-16.015625,20.33984375
0.0545,-0.3203125,-18.8583984375,18.818359375
0.055,3.84375,-20.7802734375,16.896484375
0.0555,7.1669921875,-21.541015625,14.57421875
0.056,10.490234375,-21.220703125,11.1708984375
0.0565,13.8935546875,-20.8203125,7.52734375
0.057,17.4169921875,-19.779296875,3.1630859375
0.0575,20.1396484375,-17.77734375,-1.5615234375
0.058,21.2607421875,-15.6552734375,-4.7646484375
0.0585,21.7412109375,-12.97265625,-7.8876953125
0.059,21.4609375,-9.8095703125,-11.05078125
0.0595,20.7802734375,-5.044921875,-14.9345703125
0.06,19.779296875,-1.0810546875,-17.8974609375
0.0605,18.0576171875,2.962890625,-20.2197265625
0.061,15.53515625,6.3662109375,-21.140625
0.0615,12.251953125,9.44921875,-21.060546875
0.062,8.6083984375,12.892578125,-20.9404296875
0.0625,3.5234375,16.576171875,-19.7392578125
0.063,-1.3212890625,19.138671875,-17.697265625
0.0635,-4.6845703125,20.4599609375,-15.935546875
0.064,-7.84765625,21.060546875,-13.61328125
0.0645,-10.9306640625,20.6201171875,-10.25
0.065,-14.734375,19.8193359375,-5.92578125
0.0655,-17.77734375,18.73828125,-1.8818359375
0.066,-20.099609375,16.7763671875,2.40234375
0.0665,-20.8203125,14.4541015625,5.365234375
0.067,-20.98046875,11.53125,8.4482421875
0.0675,-20.8603515625,8.2880859375,11.5712890625
0.068,-20.1396484375,3.84375,15.375
0.0685,-18.6982421875,-0.3603515625,18.09765625
0.069,-16.9365234375,-3.84375,19.859375
0.0695,-14.6943359375,-6.966796875,20.7802734375
0.07,-11.2509765625,-9.9296875,20.3798828125
0.0705,-6.88671875,-13.533203125,19.859375
0.071,-2.5224609375,-16.81640625,18.8583984375
0.0715,2.2021484375,-19.05859375,16.736328125
0.072,5.0849609375,-19.9794921875,14.89453125
0.0725,8.16796875,-20.3798828125,12.4921875
0.073,11.37109375,-20.0595703125,9.2890625
0.0735,15.0546875,-19.21875,4.8046875
0.074,17.8974609375,-17.8974609375,0.80078125
0.0745,19.779296875,-16.095703125,-2.8427734375
0.075,20.2998046875,-13.8134765625,-5.685546875
0.0755,20.2197265625,-10.73046875,-8.6884765625
0.076,19.9794921875,-7.0068359375,-12.2119140625
0.0765,19.4990234375,-3.0830078125,-15.6552734375
0.077,17.8974609375,1.0810546875,-18.1376953125
0.0775,15.8955078125,4.244140625,-19.37890625
0.078,13.5732421875,7.2470703125,-20.1396484375
0.0785,10.009765625,10.4501953125,-19.779296875
0.079,5.3251953125,14.09375,-18.978515625
0.0795,1.12109375,17.0166015625,-17.8173828125
0.08,-2.9228515625,18.9384765625,-16.015625
0.0805,-5.765625,19.4990234375,-13.9736328125
0.081,-8.888671875,19.7392578125,-11.1708984375
0.0815,-12.2119140625,19.3388671875,-7.7275390625
0.082,-15.5751953125,18.41796875,-3.603515625
0.0825,-18.1376953125,16.736328125,0.560546875
0.083,-19.4990234375,14.89453125,3.6435546875
0.0835,-20.01953125,12.4921875,6.5263671875
0.084,-19.8994140625,9.4091796875,9.529296875
0.0845,-19.37890625,5.365234375,13.1328125
0.085,-18.658203125,1.6015625,16.2158203125
0.0855,-17.056640625,-2.322265625,18.5380859375
0.086,-14.89453125,-5.205078125,19.3388671875
0.0865,-12.33203125,-8.16796875,19.69921875
0.087,-8.6884765625,-11.53125,19.4990234375
0.0875,-3.923828125,-14.9345703125,18.41796875
0.088,0.3603515625,-17.537109375,16.81640625
0.0885,3.763671875,-19.05859375,15.2548828125
0.089,6.56640625,-19.458984375,13.1728515625
0.0895,9.609375,-19.298828125,10.1298828125
0.09,13.1328125,-18.8984375,6.326171875
0.0905,16.255859375,-17.8974609375,2.3623046875
0.091,18.5380859375,-16.17578125,-1.6416015625
0.0915,19.2587890625,-14.173828125,-4.32421875
0.092,19.6591796875,-11.5712890625,-7.287109375
0.0925,19.4990234375,-8.2080078125,-10.5302734375
0.093,18.978515625,-4.2841796875,-13.93359375
0.0935,17.857421875,-0.5205078125,-16.65625
0.094,16.255859375,3.123046875,-18.6181640625
0.0945,13.8935546875,6.005859375,-19.1787109375
0.095,10.970703125,8.888671875,-19.21875
0.0955,6.88671875,12.4921875,-18.8984375
0.096,2.6826171875,15.7353515625,-17.9375
0.0965,-1.76171875,17.77734375,-15.9755859375
0.097,-4.64453125,18.8583984375,-14.3740234375
0.0975,-7.52734375,19.21875,-12.091796875
0.098,-10.73046875,18.8984375,-8.8486328125
0.0985,-14.0537109375,18.2978515625,-5.0048828125
0.099,-16.896484375,17.0966796875,-1.041015625
0.0995,-18.8984375,15.3349609375,2.6826171875
0.1,-19.298828125,13.0927734375,5.2451171875
0.1005,-19.5390625,10.3701171875,8.248046875
0.101,-19.3388671875,6.646484375,11.8115234375
0.1015,-18.7783203125,2.8427734375,15.0546875
0.102,-17.296875,-1.041015625,17.45703125
0.1025,-15.615234375,-4.1640625,18.9384765625
0.103,-13.2529296875,-7.0068359375,19.458984375
0.1035,-9.76953125,-10.1298828125,19.1787109375
0.104,-5.60546875,-13.4931640625,18.5380859375
0.1045,-1.1611328125,-16.576171875,17.3369140625
0.105,2.7626953125,-18.4580078125,15.5751953125
0.1055,5.4052734375,-18.9384765625,13.61328125
0.106,8.328125,-19.298828125,11.2109375
0.1065,11.9716796875,-18.7783203125,7.3671875
0.107,15.0546875,-17.9775390625,3.603515625
0.1075,17.537109375,-16.6162109375,-0.2001953125
0.108,19.0986328125,-14.7744140625,-3.5634765625
0.1085,19.3388671875,-12.33203125,-6.2060546875
0.109,19.37890625,-9.2490234375,-9.369140625
0.1095,18.978515625,-5.4453125,-12.7724609375
0.11,18.2578125,-1.6416015625,-15.8955078125
0.1105,16.576171875,2.162109375,-17.9775390625
0.111,14.57421875,4.96484375,-18.8583984375
0.1115,12.091796875,7.8876953125,-19.37890625
0.112,7.927734375,11.451171875,-18.8583984375
0.1125,3.8837890625,14.4541015625,-18.017578125
0.113,-0.4404296875,17.0166015625,-16.5361328125
0.1135,-3.923828125,18.6982421875,-14.89453125
0.114,-6.2861328125,18.9384765625,-12.6923828125
0.1145,-9.369140625,19.0185546875,-10.1298828125
0.115,-13.0927734375,18.41796875,-6.0859375
0.1155,-16.255859375,17.296875,-2.2021484375
0.116,-18.1376953125,15.775390625,1.5615234375
0.1165,-19.1787109375,13.8134765625,4.4443359375
0.117,-19.4189453125,11.2509765625,7.20703125
0.1175,-19.298828125,7.6875,10.73046875
0.118,-18.73828125,4.083984375,13.8134765625
0.1185,-17.77734375,0.240234375,16.65625
0.119,-16.015625,-3.4033203125,18.578125
0.1195,-13.7333984375,-6.0458984375,18.8984375
0.12,-11.2509765625,-8.8486328125,19.2587890625
0.1205,-6.646484375,-12.65234375,18.6181640625
0.121,-2.4423828125,-15.6552734375,17.537109375
0.1215,1.521484375,-17.5771484375,15.8955078125
0.122,4.6044921875,-18.8583984375,14.25390625
0.1225,7.3671875,-18.9384765625,11.8115234375
0.123,10.5302734375,-18.658203125,8.6484375
0.1235,13.8935546875,-18.2578125,4.96484375
0.124,16.6962890625,-16.9765625,0.9609375
0.1245,18.5380859375,-15.2548828125,-2.5224609375
0.125,18.978515625,-13.0927734375,-5.125
0.1255,19.3388671875,-10.5302734375,-8.0078125
0.126,18.9384765625,-6.486328125,-11.771484375
0.1265,18.3779296875,-2.9228515625,-14.6943359375
0.127,17.0166015625,0.7607421875,-17.0166015625
0.1275,15.3349609375,4.1240234375,-18.6982421875
0.128,12.65234375,6.7265625,-18.818359375
0.1285,9.609375,9.7294921875,-18.8583984375
0.129,5.3251953125,13.3330078125,-18.2978515625
0.1295,0.9208984375,16.2958984375,-16.9365234375
0.13,-2.6826171875,17.9375,-15.294921875
0.1305,-5.4453125,18.6982421875,-13.453125
0.131,-8.328125,18.8984375,-11.0107421875
0.1315,-11.931640625,18.3779296875,-7.0869140625
0.132,-14.814453125,17.697265625,-3.603515625
0.1325,-17.376953125,16.2958984375,0.2802734375
0.133,-18.9384765625,14.4140625,3.603515625
0.1335,-18.978515625,12.01171875,6.24609375
0.134,-19.298828125,9.2490234375,9.1689453125
0.1345,-18.9384765625,5.0849609375,12.9326171875
0.135,-18.0576171875,1.28125,15.8955078125
0.1355,-16.416015625,-2.2021484375,17.77734375
0.136,-14.6142578125,-5.2451171875,19.0185546875
0.1365,-11.8515625,-8.0478515625,19.138671875
0.137,-7.9677734375,-11.53125,18.6982421875
0.1375,-3.9638671875,-14.57421875,18.0576171875
0.138,0.560546875,-17.1767578125,16.3759765625
0.1385,3.923828125,-18.6181640625,14.734375
0.139,6.646484375,-18.9384765625,12.4921875
0.1395,9.44921875,-19.21875,10.169921875
0.14,13.373046875,-18.498046875,5.7255859375
0.1405,16.255859375,-17.45703125,1.921875
0.141,18.2978515625,-15.9755859375,-1.6015625
0.1415,19.458984375,-14.013671875,-4.6845703125
0.142,19.458984375,-11.2109375,-7.4873046875
0.1425,19.458984375,-7.8076171875,-10.890625
0.143,19.0185546875,-4.1240234375,-14.2138671875
0.1435,17.8974609375,0.0,-17.13671875
0.144,15.9755859375,3.4833984375,-18.73828125
0.1445,13.7333984375,6.2861328125,-19.298828125
0.145,11.0107421875,9.1689453125,-19.619140625
0.1455,6.005859375,13.212890625,-18.7783203125
0.146,2.0419921875,16.015625,-17.8173828125
0.1465,-2.001953125,18.177734375,-16.095703125
0.147,-5.3251953125,19.37890625,-14.2939453125
0.1475,-8.16796875,19.21875,-11.5712890625
0.148,-11.1708984375,19.21875,-8.6884765625
0.1485,-14.814453125,18.498046875,-4.5244140625
0.149,-17.6572265625,16.9765625,-0.2001953125
0.1495,-19.21875,15.1748046875,3.123046875
0.15,-19.939453125,12.97265625,6.0859375
0.1505,-19.939453125,10.2099609375,8.8486328125
0.151,-19.5390625,5.8857421875,12.7724609375
0.1515,-18.8984375,2.3623046875,15.6552734375
0.152,-17.4970703125,-1.6015625,18.177734375
0.1525,-15.4150390625,-4.96484375,19.5390625
0.153,-12.732421875,-7.7275390625,19.4990234375
0.1535,-9.849609375,-10.5703125,19.7392578125
0.154,-4.7646484375,-14.4541015625,18.6982421875
0.1545,-0.3203125,-17.1767578125,17.13671875
0.155,3.1630859375,-18.73828125,15.4951171875
0.1555,6.2861328125,-19.6591796875,13.5732421875
0.156,9.208984375,-19.458984375,10.650390625
0.1565,12.65234375,-18.978515625,6.88671875
0.157,15.8154296875,-18.2978515625,3.203125
0.1575,18.3779296875,-16.65625,-1.0009765625
0.158,19.4990234375,-14.6943359375,-4.0439453125
0.1585,19.8193359375,-12.0517578125,-6.9267578125
0.159,19.8994140625,-9.0888671875,-9.5693359375
0.1595,19.3388671875,-4.8447265625,-13.7333984375
0.16,18.337890625,-1.12109375,-16.5361328125
0.1605,16.7763671875,2.482421875,-18.498046875
0.161,14.734375,5.685546875,-19.7392578125
0.1615,11.4912109375,8.6083984375,-19.4990234375
0.162,7.84765625,11.9716796875,-19.298828125
0.1625,3.4833984375,15.375,-18.5380859375
0.163,-1.28125,17.9375,-16.6162109375
0.1635,-4.3642578125,19.138671875,-14.8544921875
0.164,-7.4072265625,19.6591796875,-12.65234375
0.1645,-10.2900390625,19.5791015625,-9.8896484375
0.165,-14.1337890625,18.7783203125,-5.365234375
0.1655,-17.13671875,17.7373046875,-1.4814453125
0.166,-19.21875,15.9755859375,2.3623046875
0.1665,-20.099609375,13.853515625,5.3251953125
0.167,-20.1796875,10.73046875,8.328125
0.1675,-20.099609375,7.6875,11.53125
0.168,-19.5390625,3.443359375,15.21484375
0.1685,-18.09765625,-0.8408203125,18.017578125
0.169,-16.015625,-4.2041015625,19.37890625
0.1695,-14.0537109375,-7.20703125,20.3798828125
0.17,-10.650390625,-10.2099609375,20.099609375
0.1705,-5.9658203125,-13.93359375,19.2587890625
0.171,-1.76171875,-16.9765625,18.2978515625
0.1715,2.7626953125,-19.21875,16.3359375
0.172,5.8056640625,-19.9794921875,14.333984375
0.1725,8.96875,-20.1396484375,11.53125
0.173,12.091796875,-19.939453125,8.4482421875
0.1735,15.775390625,-19.0185546875,3.9638671875
0.174,18.578125,-17.4169921875,-0.4404296875
0.1745,20.1396484375,-15.53515625,-3.763671875
0.175,20.740234375,-13.1328125,-6.7265625
0.1755,20.5,-9.8896484375,-9.8095703125
0.176,20.01953125,-5.92578125,-13.373046875
0.1765,19.4189453125,-2.1220703125,-16.576171875
0.177,17.6171875,2.2421875,-19.21875
0.1775,15.3349609375,5.4853515625,-20.0595703125
0.178,12.732421875,8.48828125,-20.5
0.1785,9.0888671875,11.7314453125,-20.2197265625
0.179,4.1240234375,15.375,-19.0986328125
0.1795,-0.3603515625,18.09765625,-17.6171875
0.18,-4.1640625,19.859375,-15.775390625
0.1805,-7.0869140625,20.33984375,-13.533203125
0.181,-10.2900390625,20.1396484375,-10.3701171875
0.1815,-13.61328125,19.6591796875,-6.7265625
0.182,-16.9365234375,18.578125,-2.5224609375
0.1825,-19.4990234375,16.65625,1.921875
0.183,-20.5,14.57421875,4.96484375
0.1835,-20.8603515625,11.8916015625,7.9677734375
0.184,-20.6201171875,8.568359375,11.130859375
0.1845,-19.8994140625,4.2041015625,14.734375
0.185,-18.8984375,0.3603515625,17.5771484375
0.1855,-17.13671875,-3.5634765625,19.779296875
0.186,-14.734375,-6.5263671875,20.3798828125
0.1865,-11.5712890625,-9.689453125,20.33984375
0.187,-7.8076171875,-12.9326171875,20.099609375
0.1875,-2.8828125,-16.3759765625,18.818359375
0.188,1.76171875,-18.73828125,16.81640625
0.1885,5.0849609375,-19.8193359375,15.0947265625
0.189,7.927734375,-20.419921875,12.7724609375
0.1895,11.05078125,-20.01953125,9.44921875
0.19,14.6142578125,-19.298828125,5.365234375
0.1905,17.6171875,-18.1376953125,1.28125
0.191,19.859375,-16.2158203125,-2.802734375
0.1915,20.33984375,-13.9736328125,-5.5654296875
0.192,20.580078125,-11.05078125,-8.6884765625
0.1925,20.33984375,-7.5673828125,-12.01171875
0.193,19.5791015625,-3.443359375,-15.4951171875
0.1935,18.1376953125,0.7607421875,-18.0576171875
0.194,16.3359375,4.2041015625,-19.7392578125
0.1945,13.8134765625,7.1669921875,-20.33984375
0.195,10.3701171875,10.2900390625,-20.0595703125
0.1955,6.0859375,13.853515625,-19.4990234375
0.196,1.5615234375,17.0966796875,-18.337890625
0.1965,-2.9228515625,19.1787109375,-16.17578125
0.197,-5.765625,19.8994140625,-14.3740234375
0.1975,-8.8486328125,20.1796875,-11.8115234375
0.198,-12.2119140625,19.779296875,-8.2880859375
0.1985,-15.6552734375,18.8984375,-4.0439453125
0.199,-18.4580078125,17.4169921875,0.1201171875
0.1995,-20.2998046875,15.4951171875,3.84375
0.2,-20.580078125,12.97265625,6.6865234375
0.2005,-20.66015625,9.76953125,9.9296875
0.201,-20.2998046875,5.8857421875,13.4130859375
0.2015,-19.5390625,1.921875,16.7763671875
0.202,-17.77734375,-2.322265625,19.1787109375
0.2025,-15.6953125,-5.4453125,20.2998046875
0.203,-13.052734375,-8.5283203125,20.7802734375
0.2035,-9.12890625,-11.931640625,20.33984375
0.204,-4.5244140625,-15.3349609375,19.3388671875
0.2045,0.1201171875,-18.2578125,17.9375
0.205,4.2841796875,-20.2197265625,15.9755859375
0.2055,7.0869140625,-20.5,13.61328125
0.206,10.330078125,-20.66015625,10.810546875
0.2065,14.09375,-20.0595703125,6.646484375
0.207,17.376953125,-19.0185546875,2.40234375
0.2075,19.859375,-17.2568359375,-1.8017578125
0.208,21.1806640625,-15.134765625,-5.205078125
0.2085,21.380859375,-12.2919921875,-8.248046875
0.209,21.1806640625,-8.6884765625,-11.8515625
0.2095,20.5400390625,-4.484375,-15.2548828125
0.21,19.4990234375,-0.2802734375,-18.4580078125
0.2105,17.4169921875,3.9638671875,-20.580078125
0.211,14.8544921875,7.046875,-21.1005859375
0.2115,11.931640625,10.2099609375,-21.5009765625
0.212,7.0869140625,14.1337890625,-20.740234375
0.2125,2.5224609375,17.296875,-19.5390625
0.213,-2.162109375,19.779296875,-17.6171875
0.2135,-6.005859375,21.380859375,-15.615234375
0.214,-8.96875,21.30078125,-12.7724609375
0.2145,-12.2919921875,21.140625,-9.5693359375
0.215,-16.17578125,20.33984375,-5.044921875
0.2155,-19.37890625,18.818359375,-0.400390625
0.216,-21.4609375,16.6962890625,3.763671875
0.2165,-22.181640625,14.2138671875,6.9267578125
0.217,-22.3818359375,11.0107421875,10.2099609375
0.2175,-21.861328125,6.6865234375,14.173828125
0.218,-20.9404296875,2.6025390625,17.3369140625
