wavelength,x,y,z
0.0,2.692626953125,0.770751953125,-3.873779296875
0.0005,1.811767578125,1.851806640625,-4.114013671875
0.001,1.291259765625,2.372314453125,-4.114013671875
0.0015,0.490478515625,2.932861328125,-3.873779296875
0.002,-0.190185546875,3.453369140625,-3.593505859375
0.0025,-1.031005859375,3.693603515625,-3.032958984375
0.003,-1.951904296875,3.933837890625,-2.392333984375
0.0035,-2.992919921875,4.214111328125,-1.591552734375
0.004,-3.313232421875,3.773681640625,-0.870849609375
0.0045,-3.953857421875,3.853759765625,-0.310302734375
0.005,-3.993896484375,3.173095703125,0.450439453125
0.0055,-4.234130859375,2.852783203125,0.970947265625
0.006,-4.354248046875,1.931884765625,1.931884765625
0.0065,-4.434326171875,1.411376953125,2.572509765625
0.007,-3.953857421875,0.490478515625,2.972900390625
0.0075,-3.873779296875,-0.150146484375,3.493408203125
0.008,-3.072998046875,-1.071044921875,3.573486328125
0.0085,-2.712646484375,-1.751708984375,3.853759765625
0.009,-1.911865234375,-2.832763671875,4.013916015625
0.0095,-1.271240234375,-3.193115234375,3.813720703125
0.01,-0.630615234375,-3.793701171875,3.773681640625
0.0105,0.170166015625,-3.993896484375,3.253173828125
0.011,0.890869140625,-4.354248046875,2.852783203125
0.0115,1.891845703125,-4.514404296875,2.052001953125
0.012,2.732666015625,-4.754638671875,1.411376953125
0.0125,3.052978515625,-4.274169921875,0.610595703125
0.013,3.573486328125,-4.354248046875,0.170166015625
0.0135,3.693603515625,-3.633544921875,-0.630615234375
0.014,3.933837890625,-3.233154296875,-1.231201171875
0.0145,4.134033203125,-2.432373046875,-2.272216796875
0.015,4.053955078125,-1.751708984375,-2.832763671875
0.0155,3.693603515625,-0.790771484375,-3.353271484375
0.016,3.333251953125,0.010009765625,-3.793701171875
0.0165,2.692626953125,0.890869140625,-3.993896484375
0.017,2.172119140625,1.691650390625,-4.234130859375
0.0175,1.371337890625,2.692626953125,-4.514404296875
0.018,0.490478515625,3.133056640625,-3.953857421875
0.0185,-0.150146484375,3.813720703125,-3.993896484375
0.019,-1.191162109375,3.973876953125,-3.153076171875
0.0195,-1.951904296875,4.254150390625,-2.632568359375
0.02,-3.072998046875,4.374267578125,-1.671630859375
0.0205,-3.833740234375,4.374267578125,-0.950927734375
0.021,-4.114013671875,3.773681640625,-0.070068359375
0.0215,-4.514404296875,3.693603515625,0.450439453125
0.022,-4.514404296875,2.732666015625,1.331298828125
0.0225,-4.594482421875,2.212158203125,1.931884765625
0.023,-4.794677734375,1.331298828125,2.972900390625
0.0235,-4.274169921875,0.490478515625,3.333251953125
0.024,-3.953857421875,-0.390380859375,3.813720703125
0.0245,-3.353271484375,-1.271240234375,4.013916015625
0.025,-2.672607421875,-2.031982421875,4.093994140625
0.0255,-1.951904296875,-2.872802734375,4.134033203125
0.026,-1.191162109375,-3.673583984375,4.214111328125
0.0265,-0.350341796875,-3.873779296875,3.653564453125
0.027,0.170166015625,-4.474365234375,3.653564453125
0.0275,1.251220703125,-4.514404296875,2.692626953125
0.028,1.891845703125,-4.794677734375,2.252197265625
0.0285,2.972900390625,-4.874755859375,1.331298828125
0.029,3.453369140625,-4.674560546875,0.650634765625
0.0295,3.813720703125,-4.314208984375,0.010009765625
0.03,4.093994140625,-3.993896484375,-0.630615234375
0.0305,4.134033203125,-3.193115234375,-1.511474609375
0.031,4.214111328125,-2.592529296875,-2.112060546875
0.0315,4.494384765625,-1.791748046875,-3.153076171875
0.032,3.813720703125,-0.790771484375,-3.473388671875
0.0325,3.693603515625,-0.070068359375,-4.114013671875
0.033,2.852783203125,0.890869140625,-4.194091796875
0.0335,2.292236328125,1.731689453125,-4.474365234375
0.034,1.491455078125,2.692626953125,-4.514404296875
0.0345,0.650634765625,3.493408203125,-4.514404296875
0.035,-0.270263671875,3.813720703125,-3.833740234375
0.0355,-0.950927734375,4.334228515625,-3.793701171875
0.036,-2.232177734375,4.454345703125,-2.552490234375
0.0365,-2.872802734375,4.614501953125,-2.072021484375
0.037,-3.993896484375,4.654541015625,-1.031005859375
0.0375,-4.354248046875,4.174072265625,-0.270263671875
0.038,-4.674560546875,3.813720703125,0.490478515625
0.0385,-4.874755859375,3.173095703125,1.291259765625
0.039,-4.954833984375,2.252197265625,2.212158203125
0.0395,-4.834716796875,1.571533203125,2.812744140625
0.04,-4.954833984375,0.730712890625,3.733642578125
0.0405,-4.033935546875,-0.430419921875,3.853759765625
0.041,-3.873779296875,-1.111083984375,4.374267578125
0.0415,-2.712646484375,-2.272216796875,4.334228515625
0.042,-2.192138671875,-2.912841796875,4.494384765625
0.0425,-1.271240234375,-3.713623046875,4.334228515625
0.043,-0.470458984375,-4.354248046875,4.134033203125
0.0435,0.370361328125,-4.514404296875,3.533447265625
0.044,1.131103515625,-4.954833984375,3.173095703125
0.0445,2.292236328125,-4.954833984375,2.052001953125
0.045,2.852783203125,-4.994873046875,1.571533203125
0.0455,3.733642578125,-4.994873046875,0.650634765625
0.046,3.893798828125,-4.394287109375,-0.070068359375
0.0465,4.254150390625,-4.154052734375,-0.630615234375
0.047,4.334228515625,-3.353271484375,-1.551513671875
0.0475,4.494384765625,-2.632568359375,-2.272216796875
0.048,4.334228515625,-1.871826171875,-2.952880859375
0.0485,4.334228515625,-1.151123046875,-3.713623046875
0.049,3.453369140625,0.010009765625,-3.873779296875
0.0495,3.333251953125,0.610595703125,-4.474365234375
0.05,2.172119140625,1.891845703125,-4.434326171875
0.0505,1.771728515625,2.492431640625,-4.594482421875
0.051,0.810791015625,3.373291015625,-4.514404296875
0.0515,0.010009765625,3.853759765625,-4.154052734375
0.052,-0.830810546875,4.174072265625,-3.673583984375
0.0525,-1.791748046875,4.574462890625,-3.153076171875
0.053,-2.952880859375,4.694580078125,-2.072021484375
0.0535,-3.553466796875,4.614501953125,-1.431396484375
0.054,-4.434326171875,4.574462890625,-0.550537109375
0.0545,-4.634521484375,3.893798828125,0.330322265625
0.055,-4.954833984375,3.653564453125,0.930908203125
0.0555,-4.994873046875,2.572509765625,1.971923828125
0.056,-5.114990234375,1.931884765625,2.692626953125
0.0565,-4.834716796875,0.930908203125,3.373291015625
0.057,-4.674560546875,0.090087890625,4.053955078125
0.0575,-3.793701171875,-1.031005859375,4.134033203125
0.058,-3.553466796875,-1.631591796875,4.574462890625
0.0585,-2.232177734375,-2.952880859375,4.534423828125
0.059,-1.711669921875,-3.473388671875,4.534423828125
0.0595,-0.710693359375,-4.234130859375,4.334228515625
0.06,0.130126953125,-4.634521484375,3.853759765625
0.0605,0.890869140625,-4.834716796875,3.333251953125
0.061,1.931884765625,-5.074951171875,2.572509765625
0.0615,2.932861328125,-5.155029296875,1.611572265625
0.062,3.453369140625,-4.874755859375,0.890869140625
0.0625,4.134033203125,-4.834716796875,0.130126953125
0.063,4.134033203125,-4.033935546875,-0.630615234375
0.0635,4.454345703125,-3.833740234375,-1.151123046875
0.064,4.454345703125,-2.712646484375,-2.272216796875
0.0645,4.494384765625,-2.232177734375,-2.832763671875
0.065,4.174072265625,-1.231201171875,-3.553466796875
0.0655,3.893798828125,-0.430419921875,-3.993896484375
0.066,3.093017578125,0.650634765625,-4.154052734375
0.0665,2.732666015625,1.331298828125,-4.474365234375
0.067,1.691650390625,2.572509765625,-4.554443359375
0.0675,1.171142578125,2.972900390625,-4.434326171875
0.068,0.250244140625,3.813720703125,-4.354248046875
0.0685,-0.630615234375,4.053955078125,-3.753662109375
0.069,-1.351318359375,4.454345703125,-3.393310546875
0.0695,-2.552490234375,4.574462890625,-2.392333984375
0.07,-3.473388671875,4.774658203125,-1.671630859375
0.0705,-3.993896484375,4.414306640625,-0.790771484375
0.071,-4.634521484375,4.334228515625,-0.070068359375
0.0715,-4.714599609375,3.493408203125,0.810791015625
0.072,-4.994873046875,3.213134765625,1.331298828125
0.0725,-5.074951171875,2.011962890625,2.532470703125
0.073,-4.994873046875,1.411376953125,3.012939453125
0.0735,-4.674560546875,0.370361328125,3.733642578125
0.074,-4.194091796875,-0.510498046875,4.134033203125
0.0745,-3.513427734375,-1.431396484375,4.334228515625
0.075,-2.872802734375,-2.232177734375,4.494384765625
0.0755,-1.911865234375,-3.353271484375,4.614501953125
0.076,-1.151123046875,-3.753662109375,4.254150390625
0.0765,-0.310302734375,-4.514404296875,4.174072265625
0.077,0.570556640625,-4.634521484375,3.413330078125
0.0775,1.251220703125,-4.954833984375,3.093017578125
0.078,2.492431640625,-5.074951171875,1.971923828125
0.0785,3.253173828125,-5.114990234375,1.291259765625
0.079,3.693603515625,-4.634521484375,0.410400390625
0.0795,4.134033203125,-4.514404296875,-0.190185546875
0.08,4.134033203125,-3.753662109375,-0.990966796875
0.0805,4.294189453125,-3.353271484375,-1.551513671875
0.081,4.494384765625,-2.392333984375,-2.632568359375
0.0815,4.174072265625,-1.711669921875,-3.072998046875
0.082,3.973876953125,-0.710693359375,-3.713623046875
0.0825,3.333251953125,0.170166015625,-3.913818359375
0.083,2.892822265625,0.970947265625,-4.194091796875
0.0835,2.052001953125,1.891845703125,-4.314208984375
0.084,1.451416015625,2.772705078125,-4.554443359375
0.0845,0.610595703125,3.173095703125,-4.073974609375
0.085,-0.070068359375,3.853759765625,-4.114013671875
0.0855,-0.990966796875,3.973876953125,-3.313232421875
0.086,-1.671630859375,4.334228515625,-2.992919921875
0.0865,-2.952880859375,4.494384765625,-1.871826171875
0.087,-3.553466796875,4.454345703125,-1.271240234375
0.0875,-4.114013671875,4.093994140625,-0.390380859375
0.088,-4.474365234375,3.813720703125,0.250244140625
0.0885,-4.594482421875,3.173095703125,0.970947265625
0.089,-4.674560546875,2.532470703125,1.651611328125
0.0895,-4.914794921875,1.731689453125,2.652587890625
0.09,-4.514404296875,0.970947265625,3.052978515625
0.0905,-4.394287109375,0.170166015625,3.773681640625
0.091,-3.593505859375,-0.830810546875,3.893798828125
0.0915,-3.273193359375,-1.551513671875,4.214111328125
0.092,-2.312255859375,-2.552490234375,4.254150390625
0.0925,-1.671630859375,-3.353271484375,4.414306640625
0.093,-0.790771484375,-3.713623046875,3.893798828125
0.0935,-0.190185546875,-4.354248046875,3.853759765625
0.094,0.770751953125,-4.434326171875,3.052978515625
0.0945,1.451416015625,-4.754638671875,2.652587890625
0.095,2.652587890625,-4.954833984375,1.651611328125
0.0955,3.052978515625,-4.674560546875,1.010986328125
0.096,3.653564453125,-4.514404296875,0.330322265625
0.0965,3.853759765625,-4.073974609375,-0.350341796875
0.097,4.013916015625,-3.633544921875,-0.990966796875
0.0975,4.093994140625,-2.872802734375,-1.831787109375
0.098,4.334228515625,-2.192138671875,-2.672607421875
0.0985,3.773681640625,-1.271240234375,-2.992919921875
0.099,3.773681640625,-0.590576171875,-3.673583984375
0.0995,2.852783203125,0.450439453125,-3.713623046875
0.1,2.652587890625,1.051025390625,-4.114013671875
0.1005,1.731689453125,2.132080078125,-4.194091796875
0.101,1.171142578125,2.652587890625,-4.154052734375
0.1015,0.370361328125,3.173095703125,-3.873779296875
0.102,-0.310302734375,3.613525390625,-3.673583984375
0.1025,-1.151123046875,3.853759765625,-3.032958984375
0.103,-1.991943359375,4.093994140625,-2.432373046875
0.1035,-3.072998046875,4.334228515625,-1.631591796875
0.104,-3.353271484375,3.853759765625,-0.910888671875
0.1045,-3.993896484375,3.893798828125,-0.310302734375
0.105,-4.073974609375,3.173095703125,0.410400390625
0.1055,-4.354248046875,2.892822265625,0.970947265625
0.106,-4.434326171875,2.092041015625,1.891845703125
0.1065,-4.594482421875,1.571533203125,2.532470703125
0.107,-4.033935546875,0.570556640625,2.972900390625
0.1075,-4.033935546875,0.010009765625,3.533447265625
0.108,-3.193115234375,-1.031005859375,3.693603515625
0.1085,-2.872802734375,-1.631591796875,3.973876953125
0.109,-2.031982421875,-2.712646484375,4.134033203125
0.1095,-1.431396484375,-3.072998046875,3.893798828125
0.11,-0.710693359375,-3.713623046875,3.813720703125
0.1105,0.010009765625,-3.993896484375,3.333251953125
0.111,0.770751953125,-4.274169921875,2.852783203125
0.1115,1.731689453125,-4.514404296875,2.172119140625
0.112,2.572509765625,-4.674560546875,1.531494140625
0.1125,2.852783203125,-4.274169921875,0.770751953125
0.113,3.413330078125,-4.354248046875,0.330322265625
0.1135,3.493408203125,-3.673583984375,-0.510498046875
0.114,3.773681640625,-3.273193359375,-0.990966796875
0.1145,3.933837890625,-2.512451171875,-1.951904296875
0.115,3.853759765625,-1.951904296875,-2.432373046875
0.1155,3.533447265625,-0.990966796875,-3.032958984375
0.116,3.213134765625,-0.310302734375,-3.353271484375
0.1165,2.692626953125,0.570556640625,-3.633544921875
0.117,2.252197265625,1.291259765625,-3.913818359375
0.1175,1.571533203125,2.212158203125,-4.154052734375
0.118,0.850830078125,2.572509765625,-3.753662109375
0.1185,0.290283203125,3.213134765625,-3.873779296875
0.119,-0.630615234375,3.453369140625,-3.153076171875
0.1195,-1.351318359375,3.853759765625,-2.792724609375
0.12,-2.392333984375,3.973876953125,-1.951904296875
0.1205,-3.072998046875,4.013916015625,-1.351318359375
0.121,-3.433349609375,3.613525390625,-0.630615234375
0.1215,-3.833740234375,3.573486328125,-0.230224609375
0.122,-3.993896484375,2.892822265625,0.650634765625
0.1225,-4.194091796875,2.532470703125,1.251220703125
0.123,-4.434326171875,1.771728515625,2.252197265625
0.1235,-4.114013671875,1.051025390625,2.572509765625
0.124,-3.953857421875,0.250244140625,3.213134765625
0.1245,-3.393310546875,-0.590576171875,3.413330078125
0.125,-2.952880859375,-1.311279296875,3.693603515625
0.1255,-2.312255859375,-2.112060546875,3.853759765625
0.126,-1.711669921875,-2.912841796875,4.013916015625
0.1265,-0.990966796875,-3.233154296875,3.533447265625
0.127,-0.470458984375,-3.833740234375,3.653564453125
0.1275,0.530517578125,-3.993896484375,2.852783203125
0.128,1.251220703125,-4.354248046875,2.532470703125
0.1285,2.252197265625,-4.554443359375,1.651611328125
0.129,2.692626953125,-4.434326171875,1.131103515625
0.1295,3.173095703125,-4.234130859375,0.410400390625
0.13,3.413330078125,-3.873779296875,-0.070068359375
0.1305,3.573486328125,-3.273193359375,-0.830810546875
0.131,3.773681640625,-2.792724609375,-1.511474609375
0.1315,4.053955078125,-2.152099609375,-2.432373046875
0.132,3.493408203125,-1.231201171875,-2.712646484375
0.1325,3.533447265625,-0.630615234375,-3.353271484375
0.133,2.732666015625,0.330322265625,-3.513427734375
0.1335,2.492431640625,1.051025390625,-3.873779296875
0.134,1.731689453125,1.931884765625,-4.033935546875
0.1345,1.091064453125,2.612548828125,-4.073974609375
0.135,0.290283203125,3.052978515625,-3.713623046875
0.1355,-0.310302734375,3.533447265625,-3.593505859375
0.136,-1.391357421875,3.733642578125,-2.712646484375
0.1365,-2.112060546875,4.013916015625,-2.272216796875
0.137,-3.153076171875,4.134033203125,-1.431396484375
0.1375,-3.513427734375,3.773681640625,-0.790771484375
0.138,-3.993896484375,3.693603515625,-0.150146484375
0.1385,-4.154052734375,3.133056640625,0.610595703125
0.139,-4.314208984375,2.572509765625,1.331298828125
0.1395,-4.354248046875,1.851806640625,2.052001953125
0.14,-4.514404296875,1.211181640625,2.852783203125
0.1405,-3.793701171875,0.170166015625,3.133056640625
0.141,-3.833740234375,-0.470458984375,3.693603515625
0.1415,-2.832763671875,-1.431396484375,3.693603515625
0.142,-2.512451171875,-2.072021484375,3.973876953125
0.1425,-1.631591796875,-2.992919921875,3.973876953125
0.143,-0.950927734375,-3.473388671875,3.813720703125
0.1435,-0.270263671875,-3.833740234375,3.493408203125
0.144,0.490478515625,-4.234130859375,3.133056640625
0.1445,1.491455078125,-4.394287109375,2.292236328125
0.145,2.132080078125,-4.554443359375,1.771728515625
0.1455,2.972900390625,-4.594482421875,1.091064453125
0.146,3.173095703125,-4.114013671875,0.370361328125
0.1465,3.653564453125,-4.114013671875,-0.070068359375
0.147,3.693603515625,-3.313232421875,-0.910888671875
0.1475,3.893798828125,-2.912841796875,-1.591552734375
0.148,3.933837890625,-2.072021484375,-2.352294921875
0.1485,3.893798828125,-1.431396484375,-2.952880859375
0.149,3.293212890625,-0.470458984375,-3.273193359375
0.1495,3.173095703125,0.170166015625,-3.753662109375
0.15,2.252197265625,1.251220703125,-3.873779296875
0.1505,1.931884765625,1.851806640625,-4.154052734375
0.151,1.131103515625,2.732666015625,-4.194091796875
0.1515,0.330322265625,3.173095703125,-3.833740234375
0.152,-0.350341796875,3.693603515625,-3.713623046875
0.1525,-1.351318359375,3.973876953125,-2.952880859375
0.153,-2.312255859375,4.174072265625,-2.312255859375
0.1535,-3.032958984375,4.254150390625,-1.591552734375
0.154,-3.833740234375,4.294189453125,-0.830810546875
0.1545,-4.073974609375,3.693603515625,0.010009765625
0.155,-4.514404296875,3.573486328125,0.490478515625
0.1555,-4.554443359375,2.532470703125,1.571533203125
0.156,-4.714599609375,2.052001953125,2.172119140625
0.1565,-4.634521484375,1.131103515625,3.052978515625
0.157,-4.354248046875,0.290283203125,3.533447265625
0.1575,-3.713623046875,-0.670654296875,3.853759765625
0.158,-3.353271484375,-1.431396484375,4.134033203125
0.1585,-2.272216796875,-2.592529296875,4.214111328125
0.159,-1.751708984375,-3.113037109375,4.174072265625
0.1595,-0.870849609375,-3.913818359375,4.134033203125
0.16,-0.070068359375,-4.154052734375,3.573486328125
0.1605,0.610595703125,-4.594482421875,3.293212890625
0.161,1.771728515625,-4.714599609375,2.372314453125
0.1615,2.572509765625,-4.834716796875,1.651611328125
0.162,3.173095703125,-4.634521484375,0.930908203125
0.1625,3.733642578125,-4.554443359375,0.290283203125
0.163,3.813720703125,-3.873779296875,-0.510498046875
0.1635,4.093994140625,-3.713623046875,-0.990966796875
0.164,4.134033203125,-2.632568359375,-2.031982421875
0.1645,4.134033203125,-2.192138671875,-2.512451171875
0.165,4.093994140625,-1.271240234375,-3.273193359375
0.1655,3.533447265625,-0.430419921875,-3.593505859375
0.166,3.133056640625,0.450439453125,-3.913818359375
0.1665,2.532470703125,1.251220703125,-4.154052734375
0.167,1.771728515625,2.252197265625,-4.354248046875
0.1675,1.131103515625,2.772705078125,-4.234130859375
0.168,0.370361328125,3.533447265625,-4.234130859375
0.1685,-0.550537109375,3.773681640625,-3.593505859375
0.169,-1.231201171875,4.214111328125,-3.473388671875
0.1695,-2.472412109375,4.414306640625,-2.272216796875
0.17,-3.233154296875,4.574462890625,-1.711669921875
0.1705,-3.913818359375,4.334228515625,-0.790771484375
0.171,-4.514404296875,4.174072265625,-0.070068359375
0.1715,-4.634521484375,3.493408203125,0.690673828125
0.172,-4.874755859375,3.093017578125,1.331298828125
0.1725,-4.994873046875,2.011962890625,2.532470703125
0.173,-4.834716796875,1.371337890625,3.012939453125
0.1735,-4.714599609375,0.410400390625,3.853759765625
0.174,-3.993896484375,-0.630615234375,4.053955078125
0.1745,-3.553466796875,-1.431396484375,4.414306640625
0.175,-2.592529296875,-2.472412109375,4.494384765625
0.1755,-1.831787109375,-3.473388671875,4.614501953125
0.176,-0.990966796875,-3.873779296875,4.174072265625
0.1765,-0.190185546875,-4.634521484375,4.134033203125
0.177,0.730712890625,-4.754638671875,3.333251953125
0.1775,1.451416015625,-5.034912109375,2.972900390625
0.178,2.812744140625,-5.155029296875,1.771728515625
0.1785,3.413330078125,-5.074951171875,1.051025390625
0.179,3.893798828125,-4.674560546875,0.170166015625
0.1795,4.334228515625,-4.354248046875,-0.510498046875
0.18,4.334228515625,-3.713623046875,-1.151123046875
0.1805,4.374267578125,-3.032958984375,-1.871826171875
0.181,4.534423828125,-2.112060546875,-2.912841796875
0.1815,4.134033203125,-1.311279296875,-3.273193359375
0.182,4.013916015625,-0.510498046875,-3.993896484375
0.1825,3.133056640625,0.490478515625,-4.033935546875
0.183,2.852783203125,1.171142578125,-4.394287109375
0.1835,1.811767578125,2.252197265625,-4.434326171875
0.184,1.291259765625,3.133056640625,-4.554443359375
0.1845,0.290283203125,3.453369140625,-4.114013671875
0.185,-0.350341796875,4.093994140625,-4.033935546875
0.1855,-1.271240234375,4.174072265625,-3.193115234375
0.186,-1.991943359375,4.494384765625,-2.832763671875
0.1865,-3.353271484375,4.654541015625,-1.671630859375
0.187,-3.873779296875,4.494384765625,-0.990966796875
0.1875,-4.474365234375,4.214111328125,-0.150146484375
0.188,-4.754638671875,3.733642578125,0.610595703125
