wavelength,x,y,z
0.0,4.1240234375,-6.0458984375,-0.240234375
0.0005,3.0830078125,-6.166015625,0.9208984375
0.001,1.5615234375,-6.2861328125,2.5224609375
0.0015,0.1201171875,-6.40625,4.083984375
0.002,-0.80078125,-6.56640625,5.1650390625
0.0025,-1.4013671875,-6.6064453125,5.8857421875
0.003,-2.3623046875,-5.9658203125,6.3662109375
0.0035,-3.7236328125,-4.6044921875,6.56640625
0.004,-5.0048828125,-3.0830078125,6.646484375
0.0045,-6.0458984375,-1.7216796875,6.6865234375
0.005,-6.40625,-0.9208984375,6.56640625
0.0055,-6.3662109375,-0.16015625,6.1259765625
0.006,-6.0458984375,0.9208984375,5.125
0.0065,-5.6455078125,2.2421875,3.6435546875
0.007,-5.365234375,3.7236328125,2.162109375
0.0075,-5.205078125,4.8046875,1.0810546875
0.008,-4.8447265625,5.4052734375,0.3603515625
0.0085,-4.083984375,5.5654296875,-0.6005859375
0.009,-2.72265625,5.5654296875,-1.8818359375
0.0095,-1.28125,5.685546875,-3.4833984375
0.01,0.1201171875,5.8056640625,-4.884765625
0.0105,0.80078125,6.005859375,-5.765625
0.011,1.44140625,5.8056640625,-6.40625
0.0115,2.5625,4.9248046875,-6.7666015625
0.012,4.00390625,3.36328125,-6.9267578125
0.0125,5.2451171875,1.8017578125,-6.9267578125
0.013,6.005859375,0.6005859375,-6.88671875
0.0135,6.2060546875,-0.2001953125,-6.7265625
0.014,6.005859375,-1.0009765625,-6.0458984375
0.0145,5.60546875,-2.1220703125,-4.8046875
0.015,5.2451171875,-3.5634765625,-3.2431640625
0.0155,4.96484375,-4.9248046875,-1.841796875
0.016,4.8046875,-5.845703125,-0.9208984375
0.0165,4.32421875,-6.3662109375,-0.2001953125
0.017,3.36328125,-6.4462890625,0.80078125
0.0175,1.841796875,-6.40625,2.2421875
0.018,0.2802734375,-6.40625,3.8837890625
0.0185,-0.8408203125,-6.56640625,5.125
0.019,-1.44140625,-6.6865234375,5.92578125
0.0195,-2.2021484375,-6.326171875,6.40625
0.02,-3.36328125,-5.125,6.646484375
0.0205,-4.7646484375,-3.5634765625,6.7666015625
0.021,-5.8857421875,-2.08203125,6.7265625
0.0215,-6.4462890625,-1.0810546875,6.6865234375
0.022,-6.486328125,-0.400390625,6.40625
0.0225,-6.24609375,0.5205078125,5.60546875
0.023,-5.765625,1.7216796875,4.2041015625
0.0235,-5.4453125,3.1630859375,2.6826171875
0.024,-5.28515625,4.484375,1.4814453125
0.0245,-5.0849609375,5.1650390625,0.640625
0.025,-4.5244140625,5.525390625,-0.2001953125
0.0255,-3.4033203125,5.60546875,-1.28125
0.026,-1.921875,5.7255859375,-2.7626953125
0.0265,-0.4404296875,5.765625,-4.3642578125
0.027,0.5205078125,6.005859375,-5.4453125
0.0275,1.12109375,6.0458984375,-6.166015625
0.028,2.001953125,5.4052734375,-6.6064453125
0.0285,3.4033203125,4.083984375,-6.8466796875
0.029,4.724609375,2.5224609375,-6.9267578125
0.0295,5.7255859375,1.12109375,-6.9267578125
0.03,6.1259765625,0.2802734375,-6.8466796875
0.0305,6.1259765625,-0.6005859375,-6.4462890625
0.031,5.765625,-1.521484375,-5.4453125
0.0315,5.4052734375,-2.8828125,-3.9638671875
0.032,5.0849609375,-4.3642578125,-2.4423828125
0.0325,4.96484375,-5.5654296875,-1.3212890625
0.033,4.64453125,-6.2060546875,-0.560546875
0.0335,3.84375,-6.4462890625,0.3603515625
0.034,2.5224609375,-6.40625,1.6416015625
0.0345,0.9208984375,-6.486328125,3.3232421875
0.035,-0.5205078125,-6.6064453125,4.8046875
0.0355,-1.2412109375,-6.7666015625,5.765625
0.036,-1.921875,-6.56640625,6.40625
0.0365,-2.962890625,-5.7255859375,6.6865234375
0.037,-4.4443359375,-4.1240234375,6.88671875
0.0375,-5.6455078125,-2.5224609375,6.88671875
0.038,-6.4462890625,-1.28125,6.88671875
0.0385,-6.6865234375,-0.5205078125,6.6064453125
0.039,-6.486328125,0.3203125,6.005859375
0.0395,-6.0458984375,1.44140625,4.724609375
0.04,-5.6455078125,2.9228515625,3.123046875
0.0405,-5.4453125,4.2841796875,1.681640625
0.041,-5.205078125,5.205078125,0.720703125
0.0415,-4.724609375,5.6455078125,0.0
0.042,-3.7236328125,5.765625,-1.0009765625
0.0425,-2.2021484375,5.7255859375,-2.482421875
0.043,-0.640625,5.845703125,-4.1240234375
0.0435,0.5205078125,5.9658203125,-5.4052734375
0.044,1.12109375,6.0458984375,-6.166015625
0.0445,1.921875,5.6455078125,-6.6865234375
0.045,3.123046875,4.4443359375,-6.88671875
0.0455,4.484375,2.8427734375,-7.0068359375
0.046,5.60546875,1.3212890625,-6.9267578125
0.0465,6.166015625,0.3203125,-6.88671875
0.047,6.2060546875,-0.48046875,-6.56640625
0.0475,5.8857421875,-1.28125,-5.765625
0.048,5.4453125,-2.5224609375,-4.3642578125
0.0485,5.0849609375,-4.00390625,-2.8427734375
0.049,4.884765625,-5.205078125,-1.6015625
0.0495,4.6044921875,-5.9658203125,-0.80078125
0.05,4.083984375,-6.2861328125,0.080078125
0.0505,3.0029296875,-6.2861328125,1.0810546875
0.051,1.4814453125,-6.2861328125,2.5625
0.0515,0.0,-6.3662109375,4.1240234375
0.052,-0.9609375,-6.5263671875,5.2451171875
0.0525,-1.4814453125,-6.6064453125,5.92578125
0.053,-2.322265625,-6.0458984375,6.326171875
0.0535,-3.5634765625,-4.7646484375,6.486328125
0.054,-4.8447265625,-3.283203125,6.56640625
0.0545,-5.8056640625,-1.9619140625,6.56640625
0.055,-6.2861328125,-1.1611328125,6.56640625
0.0555,-6.2861328125,-0.4404296875,6.166015625
0.056,-5.9658203125,0.48046875,5.365234375
0.0565,-5.60546875,1.7216796875,3.9638671875
0.057,-5.3251953125,3.123046875,2.5625
0.0575,-5.28515625,4.2841796875,1.521484375
0.058,-5.0048828125,4.96484375,0.7607421875
0.0585,-4.3642578125,5.28515625,0.0
0.059,-3.203125,5.3251953125,-1.201171875
0.0595,-1.8017578125,5.4853515625,-2.6826171875
0.06,-0.5205078125,5.6455078125,-4.1640625
0.0605,0.2802734375,5.8857421875,-5.1650390625
0.061,0.9208984375,5.8857421875,-5.845703125
0.0615,1.8818359375,5.205078125,-6.2861328125
0.062,3.203125,3.84375,-6.4462890625
0.0625,4.484375,2.40234375,-6.56640625
0.063,5.4052734375,1.201171875,-6.6865234375
0.0635,5.7255859375,0.5205078125,-6.6064453125
0.064,5.685546875,-0.3203125,-6.1259765625
0.0645,5.3251953125,-1.3212890625,-5.125
0.065,5.0849609375,-2.6025390625,-3.84375
0.0655,4.8447265625,-4.0439453125,-2.5224609375
0.066,4.8046875,-5.0048828125,-1.6015625
0.0665,4.484375,-5.60546875,-0.880859375
0.067,3.763671875,-5.765625,0.0400390625
0.0675,2.482421875,-5.845703125,1.28125
0.068,1.0810546875,-6.005859375,2.8427734375
0.0685,0.0,-6.24609375,4.1240234375
0.069,-0.6806640625,-6.4462890625,5.044921875
0.0695,-1.4013671875,-6.2861328125,5.60546875
0.07,-2.4423828125,-5.4052734375,5.92578125
0.0705,-3.763671875,-4.083984375,6.1259765625
0.071,-4.9248046875,-2.72265625,6.24609375
0.0715,-5.6455078125,-1.8017578125,6.3662109375
0.072,-5.845703125,-1.1611328125,6.2060546875
0.0725,-5.765625,-0.48046875,5.685546875
0.073,-5.4052734375,0.640625,4.6044921875
0.0735,-5.205078125,1.9619140625,3.3232421875
0.074,-5.125,3.3232421875,2.2021484375
0.0745,-5.044921875,4.1640625,1.4013671875
0.075,-4.64453125,4.6845703125,0.720703125
0.0755,-3.84375,4.8447265625,-0.2802734375
0.076,-2.642578125,5.0849609375,-1.5615234375
0.0765,-1.3212890625,5.2451171875,-3.0830078125
0.077,-0.5205078125,5.5654296875,-4.2041015625
0.0775,0.240234375,5.765625,-5.044921875
0.078,1.0009765625,5.4453125,-5.60546875
0.0785,2.162109375,4.4443359375,-5.92578125
0.079,3.443359375,3.1630859375,-6.1259765625
0.0795,4.5244140625,1.921875,-6.2861328125
0.08,5.125,1.12109375,-6.40625
0.0805,5.28515625,0.48046875,-6.24609375
0.081,5.125,-0.4404296875,-5.6455078125
0.0815,4.884765625,-1.5615234375,-4.5244140625
0.082,4.7646484375,-2.8828125,-3.283203125
0.0825,4.724609375,-4.083984375,-2.2822265625
0.083,4.6044921875,-4.8447265625,-1.6015625
0.0835,4.1240234375,-5.28515625,-0.80078125
0.084,3.203125,-5.4453125,0.2802734375
0.0845,1.9619140625,-5.6455078125,1.681640625
0.085,0.80078125,-5.92578125,3.0830078125
0.0855,0.1201171875,-6.2861328125,4.1240234375
0.086,-0.640625,-6.3662109375,4.9248046875
0.0865,-1.4814453125,-5.92578125,5.4052734375
0.087,-2.72265625,-4.7646484375,5.685546875
0.0875,-3.9638671875,-3.4833984375,5.8857421875
0.088,-4.9248046875,-2.40234375,6.0859375
0.0885,-5.4052734375,-1.8017578125,6.1259765625
0.089,-5.4453125,-1.1611328125,5.8056640625
0.0895,-5.28515625,-0.3203125,5.0849609375
0.09,-5.0849609375,1.0009765625,3.9638671875
0.0905,-5.0048828125,2.2822265625,2.8427734375
0.091,-5.044921875,3.36328125,2.0419921875
0.0915,-4.884765625,4.083984375,1.4013671875
0.092,-4.3642578125,4.404296875,0.640625
0.0925,-3.283203125,4.6044921875,-0.6005859375
0.093,-2.2021484375,4.9248046875,-1.9619140625
0.0935,-1.201171875,5.2451171875,-3.283203125
0.094,-0.6005859375,5.60546875,-4.2041015625
0.0945,0.2802734375,5.5654296875,-4.96484375
0.095,1.2412109375,4.884765625,-5.4052734375
0.0955,2.482421875,3.8037109375,-5.7255859375
0.096,3.68359375,2.5625,-5.92578125
0.0965,4.5244140625,1.6015625,-6.166015625
0.097,4.9248046875,1.041015625,-6.166015625
0.0975,4.9248046875,0.3203125,-5.845703125
0.098,4.7646484375,-0.640625,-5.0048828125
0.0985,4.64453125,-1.8818359375,-3.8837890625
0.099,4.64453125,-3.1630859375,-2.9228515625
0.0995,4.64453125,-4.1240234375,-2.2021484375
0.1,4.484375,-4.7646484375,-1.521484375
0.1005,3.763671875,-5.044921875,-0.640625
0.101,2.6826171875,-5.28515625,0.720703125
0.1015,1.521484375,-5.6455078125,2.162109375
0.102,0.6806640625,-6.0458984375,3.36328125
0.1025,0.1201171875,-6.3662109375,4.244140625
0.103,-0.80078125,-6.1259765625,4.9248046875
0.1035,-1.8818359375,-5.28515625,5.28515625
0.104,-3.1630859375,-4.1640625,5.60546875
0.1045,-4.32421875,-3.0029296875,5.845703125
0.105,-5.0048828125,-2.2822265625,6.0859375
0.1055,-5.28515625,-1.6416015625,5.92578125
0.106,-5.205078125,-0.8408203125,5.4453125
0.1065,-5.0849609375,0.3203125,4.484375
0.107,-5.0048828125,1.6015625,3.4033203125
0.1075,-5.0849609375,2.8427734375,2.482421875
0.108,-5.0048828125,3.68359375,1.8017578125
0.1085,-4.64453125,4.1240234375,1.0810546875
0.109,-3.763671875,4.4443359375,0.0400390625
0.1095,-2.72265625,4.7646484375,-1.361328125
0.11,-1.6015625,5.0849609375,-2.7626953125
0.1105,-0.880859375,5.525390625,-3.8837890625
0.111,-0.2001953125,5.6455078125,-4.724609375
0.1115,0.80078125,5.205078125,-5.28515625
0.112,2.0419921875,4.1240234375,-5.6455078125
0.1125,3.36328125,2.8427734375,-5.92578125
0.113,4.3642578125,1.841796875,-6.1259765625
0.1135,4.8447265625,1.12109375,-6.2861328125
0.114,4.96484375,0.5205078125,-5.9658203125
0.1145,4.8046875,-0.5205078125,-5.205078125
0.115,4.6845703125,-1.6416015625,-4.1240234375
0.1155,4.64453125,-3.0029296875,-3.0029296875
0.116,4.6845703125,-4.1240234375,-2.162109375
0.1165,4.5244140625,-4.8046875,-1.4814453125
0.117,3.8837890625,-5.125,-0.6806640625
0.1175,2.8427734375,-5.3251953125,0.560546875
0.118,1.6015625,-5.60546875,2.001953125
0.1185,0.6806640625,-5.9658203125,3.3232421875
0.119,0.0400390625,-6.2861328125,4.32421875
0.1195,-0.80078125,-6.2060546875,4.96484375
0.12,-1.841796875,-5.4453125,5.4052734375
0.1205,-3.123046875,-4.2841796875,5.685546875
0.121,-4.3642578125,-3.04296875,5.8857421875
0.1215,-5.125,-2.162109375,6.0859375
0.122,-5.4453125,-1.4814453125,6.0859375
0.1225,-5.4052734375,-0.7607421875,5.5654296875
0.123,-5.1650390625,0.3203125,4.6044921875
0.1235,-5.044921875,1.6015625,3.443359375
0.124,-5.0849609375,2.9228515625,2.40234375
0.1245,-5.0048828125,3.84375,1.6015625
0.125,-4.6845703125,4.3642578125,0.9609375
0.1255,-3.8837890625,4.6044921875,0.0400390625
0.126,-2.72265625,4.8447265625,-1.3212890625
0.1265,-1.5615234375,5.125,-2.8427734375
0.127,-0.720703125,5.525390625,-4.00390625
0.1275,0.0,5.7255859375,-4.8447265625
0.128,0.8408203125,5.4052734375,-5.4453125
0.1285,2.0419921875,4.32421875,-5.765625
0.129,3.36328125,3.04296875,-6.0458984375
0.1295,4.484375,1.8017578125,-6.2861328125
0.13,5.0849609375,1.0810546875,-6.3662109375
0.1305,5.2451171875,0.4404296875,-6.166015625
0.131,5.0849609375,-0.5205078125,-5.4453125
0.1315,4.8447265625,-1.681640625,-4.32421875
0.132,4.7646484375,-3.04296875,-3.0830078125
0.1325,4.7646484375,-4.244140625,-2.1220703125
0.133,4.6044921875,-5.0048828125,-1.361328125
0.1335,4.0439453125,-5.4052734375,-0.640625
0.134,3.04296875,-5.525390625,0.560546875
0.1345,1.7216796875,-5.765625,2.0419921875
0.135,0.6005859375,-6.0458984375,3.4833984375
0.1355,-0.240234375,-6.3662109375,4.484375
0.136,-0.8408203125,-6.3662109375,5.205078125
0.1365,-1.841796875,-5.765625,5.685546875
0.137,-3.1630859375,-4.5244140625,5.92578125
0.1375,-4.5244140625,-3.1630859375,6.0859375
0.138,-5.4052734375,-2.001953125,6.24609375
0.1385,-5.765625,-1.3212890625,6.24609375
0.139,-5.7255859375,-0.640625,5.765625
0.1395,-5.4453125,0.48046875,4.8046875
0.14,-5.2451171875,1.76171875,3.5634765625
0.1405,-5.1650390625,3.1630859375,2.3623046875
0.141,-5.125,4.1240234375,1.4814453125
0.1415,-4.8447265625,4.7646484375,0.7607421875
0.142,-4.0439453125,5.0048828125,-0.16015625
0.1425,-2.7626953125,5.0849609375,-1.4814453125
0.143,-1.44140625,5.365234375,-3.04296875
0.1435,-0.48046875,5.6455078125,-4.3642578125
0.144,0.2802734375,5.8857421875,-5.28515625
0.1445,1.12109375,5.60546875,-5.92578125
0.145,2.2822265625,4.5244140625,-6.24609375
0.1455,3.68359375,3.123046875,-6.486328125
0.146,4.884765625,1.76171875,-6.6064453125
0.1465,5.60546875,0.7607421875,-6.646484375
0.147,5.765625,0.1201171875,-6.4462890625
0.1475,5.60546875,-0.8408203125,-5.7255859375
0.148,5.2451171875,-2.08203125,-4.4443359375
0.1485,5.0048828125,-3.5634765625,-2.962890625
0.149,4.9248046875,-4.8447265625,-1.8017578125
0.1495,4.724609375,-5.6455078125,-1.0009765625
0.15,4.1240234375,-6.0458984375,-0.240234375
0.1505,3.04296875,-6.1259765625,0.9609375
0.151,1.521484375,-6.2060546875,2.5224609375
0.1515,0.1201171875,-6.3662109375,4.1240234375
0.152,-0.80078125,-6.56640625,5.2451171875
0.1525,-1.4013671875,-6.6064453125,5.8857421875
0.153,-2.3623046875,-5.92578125,6.3662109375
0.1535,-3.8037109375,-4.564453125,6.5263671875
0.154,-5.0849609375,-2.962890625,6.646484375
0.1545,-6.0458984375,-1.6416015625,6.646484375
0.155,-6.40625,-0.80078125,6.5263671875
0.1555,-6.3662109375,0.0,6.0458984375
0.156,-6.005859375,1.0009765625,5.044921875
0.1565,-5.6455078125,2.40234375,3.5234375
0.157,-5.3251953125,3.84375,2.0419921875
0.1575,-5.205078125,4.884765625,1.0009765625
0.158,-4.8447265625,5.4453125,0.2802734375
0.1585,-4.00390625,5.60546875,-0.640625
0.159,-2.642578125,5.60546875,-1.921875
0.1595,-1.1611328125,5.7255859375,-3.5634765625
0.16,0.240234375,5.845703125,-4.96484375
0.1605,0.880859375,5.9658203125,-5.845703125
0.161,1.5615234375,5.765625,-6.4462890625
0.1615,2.5625,4.8046875,-6.806640625
0.162,4.083984375,3.2431640625,-6.9267578125
0.1625,5.2451171875,1.7216796875,-6.9267578125
0.163,6.0859375,0.5205078125,-6.88671875
0.1635,6.24609375,-0.2802734375,-6.7265625
0.164,6.0458984375,-1.041015625,-6.0458984375
0.1645,5.5654296875,-2.2021484375,-4.7646484375
0.165,5.2451171875,-3.6435546875,-3.203125
0.1655,4.96484375,-5.0048828125,-1.8017578125
0.166,4.7646484375,-5.92578125,-0.880859375
0.1665,4.32421875,-6.40625,0.0
0.167,3.3232421875,-6.40625,0.880859375
0.1675,1.8017578125,-6.40625,2.322265625
0.168,0.240234375,-6.4462890625,4.00390625
0.1685,-0.9609375,-6.6064453125,5.2451171875
0.169,-1.4814453125,-6.7265625,6.005859375
0.1695,-2.322265625,-6.326171875,6.4462890625
0.17,-3.5234375,-5.044921875,6.7265625
0.1705,-4.8447265625,-3.4833984375,6.7666015625
0.171,-5.9658203125,-1.9619140625,6.7265625
0.1715,-6.56640625,-1.0009765625,6.6865234375
0.172,-6.56640625,-0.3203125,6.3662109375
0.1725,-6.2861328125,0.640625,5.5654296875
0.173,-5.8056640625,1.921875,4.1240234375
0.1735,-5.4853515625,3.3232421875,2.5625
0.174,-5.28515625,4.6044921875,1.361328125
0.1745,-5.044921875,5.365234375,0.560546875
0.175,-4.4443359375,5.6455078125,-0.3203125
0.1755,-3.283203125,5.6455078125,-1.3212890625
0.176,-1.8017578125,5.7255859375,-2.8828125
0.1765,-0.2802734375,5.765625,-4.484375
0.177,0.6005859375,5.92578125,-5.5654296875
0.1775,1.201171875,5.92578125,-6.2861328125
0.178,2.162109375,5.3251953125,-6.6865234375
0.1785,3.4833984375,3.923828125,-6.8466796875
0.179,4.8046875,2.40234375,-6.9267578125
0.1795,5.8056640625,1.0009765625,-6.9267578125
0.18,6.2060546875,0.16015625,-6.806640625
0.1805,6.1259765625,-0.6806640625,-6.40625
0.181,5.765625,-1.6416015625,-5.4052734375
0.1815,5.4052734375,-3.0029296875,-3.8837890625
0.182,5.0849609375,-4.484375,-2.322265625
0.1825,4.96484375,-5.6455078125,-1.2412109375
0.183,4.564453125,-6.24609375,-0.5205078125
0.1835,3.8037109375,-6.40625,0.4404296875
0.184,2.4423828125,-6.40625,1.7216796875
0.1845,0.80078125,-6.486328125,3.36328125
0.185,-0.6005859375,-6.6064453125,4.8447265625
0.1855,-1.28125,-6.7666015625,5.7255859375
0.186,-1.9619140625,-6.56640625,6.40625
0.1865,-2.962890625,-5.6455078125,6.6865234375
0.187,-4.404296875,-4.083984375,6.8466796875
0.1875,-5.6455078125,-2.5224609375,6.8466796875
0.188,-6.4462890625,-1.28125,6.7666015625
0.1885,-6.646484375,-0.5205078125,6.6064453125
0.189,-6.40625,0.3203125,5.92578125
0.1895,-6.005859375,1.44140625,4.6845703125
0.19,-5.6455078125,2.9228515625,3.123046875
0.1905,-5.4052734375,4.32421875,1.7216796875
0.191,-5.1650390625,5.2451171875,0.7607421875
0.1915,-4.724609375,5.685546875,0.0
0.192,-3.763671875,5.765625,-1.0009765625
0.1925,-2.2421875,5.7255859375,-2.4423828125
0.193,-0.640625,5.765625,-4.1640625
0.1935,0.48046875,5.92578125,-5.4052734375
0.194,1.0810546875,6.0458984375,-6.1259765625
0.1945,1.8818359375,5.6455078125,-6.6865234375
0.195,3.123046875,4.404296875,-6.88671875
0.1955,4.484375,2.8427734375,-6.966796875
0.196,5.60546875,1.3212890625,-6.9267578125
0.1965,6.2060546875,0.3203125,-6.88671875
0.197,6.2060546875,-0.48046875,-6.56640625
0.1975,5.8857421875,-1.3212890625,-5.765625
0.198,5.4453125,-2.5224609375,-4.3642578125
0.1985,5.0849609375,-3.9638671875,-2.7626953125
0.199,4.9248046875,-5.205078125,-1.5615234375
0.1995,4.64453125,-5.9658203125,-0.6806640625
0.2,4.083984375,-6.326171875,0.1201171875
0.2005,2.9228515625,-6.3662109375,1.1611328125
0.201,1.4013671875,-6.3662109375,2.6826171875
0.2015,-0.2001953125,-6.4462890625,4.244140625
0.202,-1.0009765625,-6.56640625,5.3251953125
0.2025,-1.5615234375,-6.6064453125,6.005859375
0.203,-2.40234375,-6.0458984375,6.40625
0.2035,-3.68359375,-4.6845703125,6.5263671875
0.204,-4.96484375,-3.203125,6.6064453125
0.2045,-5.92578125,-1.841796875,6.6064453125
0.205,-6.3662109375,-1.0009765625,6.5263671875
0.2055,-6.2861328125,-0.3203125,6.166015625
0.206,-5.9658203125,0.640625,5.2451171875
0.2065,-5.60546875,1.921875,3.8837890625
0.207,-5.3251953125,3.3232421875,2.482421875
0.2075,-5.205078125,4.484375,1.4013671875
0.208,-4.96484375,5.0849609375,0.6806640625
0.2085,-4.2841796875,5.365234375,-0.240234375
0.209,-3.0830078125,5.365234375,-1.361328125
0.2095,-1.7216796875,5.4853515625,-2.8828125
0.21,-0.3603515625,5.685546875,-4.3642578125
0.2105,0.4404296875,5.92578125,-5.365234375
0.211,1.0810546875,5.8857421875,-6.0458984375
0.2115,2.0419921875,5.1650390625,-6.40625
0.212,3.4033203125,3.8037109375,-6.6064453125
0.2125,4.64453125,2.2421875,-6.6865234375
0.213,5.5654296875,1.0810546875,-6.7265625
0.2135,5.8857421875,0.3603515625,-6.6865234375
0.214,5.765625,-0.5205078125,-6.166015625
0.2145,5.4052734375,-1.4814453125,-5.0849609375
0.215,5.125,-2.8828125,-3.68359375
0.2155,4.9248046875,-4.244140625,-2.322265625
0.216,4.8046875,-5.28515625,-1.4013671875
0.2165,4.484375,-5.845703125,-0.6806640625
0.217,3.68359375,-6.0859375,0.2802734375
0.2175,2.2421875,-6.1259765625,1.5615234375
0.218,0.80078125,-6.1259765625,3.1630859375
0.2185,-0.3203125,-6.3662109375,4.484375
0.219,-0.9208984375,-6.56640625,5.365234375
0.2195,-1.6416015625,-6.2861328125,5.8857421875
0.22,-2.7626953125,-5.28515625,6.1259765625
0.2205,-4.083984375,-3.8837890625,6.326171875
0.221,-5.205078125,-2.482421875,6.3662109375
0.2215,-5.8857421875,-1.521484375,6.40625
0.222,-6.0458984375,-0.880859375,6.24609375
0.2225,-5.845703125,0.0,5.60546875
0.223,-5.4853515625,1.041015625,4.4443359375
0.2235,-5.205078125,2.40234375,3.0830078125
0.224,-5.125,3.6435546875,1.921875
0.2245,-5.0048828125,4.484375,1.1611328125
0.225,-4.5244140625,4.884765625,0.48046875
0.2255,-3.68359375,4.96484375,-0.6005859375
0.226,-2.4423828125,5.1650390625,-1.8818359375
0.2265,-1.041015625,5.365234375,-3.36328125
0.227,-0.2802734375,5.60546875,-4.5244140625
0.2275,0.4404296875,5.765625,-5.28515625
0.228,1.28125,5.4052734375,-5.8056640625
