wavelength,x,y,z
0.0,-3.513427734375,2.492431640625,0.610595703125
0.0005,-3.753662109375,1.971923828125,1.291259765625
0.001,-3.753662109375,1.211181640625,2.052001953125
0.0015,-3.713623046875,0.690673828125,2.532470703125
0.002,-3.473388671875,0.090087890625,3.012939453125
0.0025,-3.353271484375,-0.470458984375,3.373291015625
0.003,-2.592529296875,-1.391357421875,3.573486328125
0.0035,-2.031982421875,-2.031982421875,3.693603515625
0.004,-1.311279296875,-2.752685546875,3.693603515625
0.0045,-0.630615234375,-3.193115234375,3.413330078125
0.005,0.010009765625,-3.713623046875,3.373291015625
0.0055,0.810791015625,-3.873779296875,2.732666015625
0.006,1.531494140625,-4.114013671875,2.292236328125
0.0065,2.092041015625,-4.154052734375,1.731689453125
0.007,2.612548828125,-4.154052734375,1.251220703125
0.0075,2.852783203125,-3.793701171875,0.610595703125
0.008,3.333251953125,-3.713623046875,0.130126953125
0.0085,3.373291015625,-2.832763671875,-0.950927734375
0.009,3.613525390625,-2.472412109375,-1.591552734375
0.0095,3.613525390625,-1.711669921875,-2.392333984375
0.01,3.493408203125,-1.151123046875,-2.712646484375
0.0105,3.413330078125,-0.510498046875,-3.233154296875
0.011,3.012939453125,0.170166015625,-3.553466796875
0.0115,2.412353515625,1.091064453125,-3.833740234375
0.012,1.731689453125,1.771728515625,-3.833740234375
0.0125,1.051025390625,2.452392578125,-3.873779296875
0.013,0.290283203125,2.852783203125,-3.473388671875
0.0135,-0.350341796875,3.413330078125,-3.553466796875
0.014,-1.311279296875,3.493408203125,-2.632568359375
0.0145,-1.991943359375,3.773681640625,-2.272216796875
0.015,-2.592529296875,3.693603515625,-1.591552734375
0.0155,-3.032958984375,3.573486328125,-1.071044921875
0.016,-3.353271484375,3.253173828125,-0.390380859375
0.0165,-3.673583984375,2.852783203125,0.330322265625
0.017,-3.793701171875,1.931884765625,1.331298828125
0.0175,-3.873779296875,1.411376953125,1.971923828125
0.018,-3.833740234375,0.730712890625,2.692626953125
0.0185,-3.553466796875,0.130126953125,3.052978515625
0.019,-3.473388671875,-0.510498046875,3.533447265625
0.0195,-2.752685546875,-1.351318359375,3.693603515625
0.02,-2.152099609375,-2.192138671875,3.893798828125
0.0205,-1.311279296875,-2.752685546875,3.693603515625
0.021,-0.670654296875,-3.353271484375,3.693603515625
0.0215,0.130126953125,-3.713623046875,3.253173828125
0.022,0.690673828125,-4.114013671875,3.133056640625
0.0225,1.691650390625,-4.194091796875,2.212158203125
0.023,2.252197265625,-4.274169921875,1.771728515625
0.0235,2.812744140625,-4.194091796875,1.131103515625
0.024,3.093017578125,-3.953857421875,0.610595703125
0.0245,3.453369140625,-3.713623046875,0.010009765625
0.025,3.573486328125,-3.072998046875,-0.910888671875
0.0255,3.733642578125,-2.352294921875,-1.831787109375
0.026,3.653564453125,-1.631591796875,-2.352294921875
0.0265,3.693603515625,-1.111083984375,-2.952880859375
0.027,3.253173828125,-0.430419921875,-3.233154296875
0.0275,3.173095703125,0.130126953125,-3.713623046875
0.028,2.332275390625,1.091064453125,-3.833740234375
0.0285,1.851806640625,1.771728515625,-3.993896484375
0.029,0.970947265625,2.412353515625,-3.793701171875
0.0295,0.370361328125,2.892822265625,-3.673583984375
0.03,-0.390380859375,3.253173828125,-3.313232421875
0.0305,-1.031005859375,3.533447265625,-2.952880859375
0.031,-1.951904296875,3.693603515625,-2.232177734375
0.0315,-2.432373046875,3.653564453125,-1.711669921875
0.032,-3.032958984375,3.693603515625,-1.151123046875
0.0325,-3.193115234375,3.253173828125,-0.590576171875
0.033,-3.673583984375,3.052978515625,0.090087890625
0.0335,-3.713623046875,2.172119140625,1.010986328125
0.034,-3.913818359375,1.651611328125,1.851806640625
0.0345,-3.713623046875,0.970947265625,2.372314453125
0.035,-3.793701171875,0.490478515625,2.892822265625
0.0355,-3.433349609375,-0.310302734375,3.293212890625
0.036,-3.193115234375,-0.830810546875,3.693603515625
0.0365,-2.392333984375,-1.871826171875,3.853759765625
0.037,-1.751708984375,-2.512451171875,3.853759765625
0.0375,-0.990966796875,-3.153076171875,3.773681640625
0.038,-0.270263671875,-3.553466796875,3.533447265625
0.0385,0.410400390625,-3.993896484375,3.253173828125
0.039,1.251220703125,-4.154052734375,2.612548828125
0.0395,2.052001953125,-4.394287109375,2.052001953125
0.04,2.492431640625,-4.194091796875,1.411376953125
0.0405,3.052978515625,-4.314208984375,0.930908203125
0.041,3.213134765625,-3.793701171875,0.210205078125
0.0415,3.573486328125,-3.553466796875,-0.470458984375
0.042,3.613525390625,-2.472412109375,-1.511474609375
0.0425,3.813720703125,-1.991943359375,-2.192138671875
0.043,3.573486328125,-1.231201171875,-2.712646484375
0.0435,3.533447265625,-0.790771484375,-3.153076171875
0.044,3.173095703125,0.010009765625,-3.553466796875
0.0445,2.692626953125,0.650634765625,-3.713623046875
0.045,1.971923828125,1.571533203125,-3.953857421875
0.0455,1.291259765625,2.092041015625,-3.793701171875
0.046,0.610595703125,2.772705078125,-3.793701171875
0.0465,-0.150146484375,3.093017578125,-3.353271484375
0.047,-0.710693359375,3.493408203125,-3.193115234375
0.0475,-1.631591796875,3.573486328125,-2.432373046875
0.048,-2.352294921875,3.773681640625,-1.951904296875
0.0485,-2.752685546875,3.493408203125,-1.311279296875
0.049,-3.193115234375,3.533447265625,-0.870849609375
0.0495,-3.473388671875,3.052978515625,-0.150146484375
0.05,-3.713623046875,2.692626953125,0.610595703125
0.0505,-3.833740234375,1.771728515625,1.691650390625
0.051,-3.873779296875,1.251220703125,2.252197265625
0.0515,-3.793701171875,0.530517578125,2.852783203125
0.052,-3.593505859375,0.010009765625,3.213134765625
0.0525,-3.353271484375,-0.710693359375,3.653564453125
0.053,-2.632568359375,-1.591552734375,3.773681640625
0.0535,-1.991943359375,-2.432373046875,4.013916015625
0.054,-1.151123046875,-2.912841796875,3.693603515625
0.0545,-0.510498046875,-3.593505859375,3.773681640625
0.055,0.330322265625,-3.873779296875,3.253173828125
0.0555,0.930908203125,-4.194091796875,3.012939453125
0.056,1.931884765625,-4.354248046875,2.092041015625
0.0565,2.532470703125,-4.434326171875,1.571533203125
0.057,2.932861328125,-4.194091796875,0.970947265625
0.0575,3.333251953125,-4.114013671875,0.410400390625
0.058,3.533447265625,-3.513427734375,-0.390380859375
0.0585,3.693603515625,-2.872802734375,-1.151123046875
0.059,3.893798828125,-2.072021484375,-2.192138671875
0.0595,3.653564453125,-1.431396484375,-2.592529296875
0.06,3.653564453125,-0.830810546875,-3.193115234375
0.0605,3.253173828125,-0.150146484375,-3.513427734375
0.061,2.972900390625,0.490478515625,-3.833740234375
0.0615,2.172119140625,1.411376953125,-3.913818359375
0.062,1.531494140625,2.172119140625,-4.033935546875
0.0625,0.650634765625,2.612548828125,-3.673583984375
0.063,0.130126953125,3.173095703125,-3.713623046875
0.0635,-0.710693359375,3.453369140625,-3.193115234375
0.064,-1.351318359375,3.693603515625,-2.752685546875
0.0645,-2.312255859375,3.813720703125,-1.991943359375
0.065,-2.752685546875,3.653564453125,-1.431396484375
0.0655,-3.273193359375,3.573486328125,-0.910888671875
0.066,-3.553466796875,3.253173828125,-0.270263671875
0.0665,-3.793701171875,2.812744140625,0.530517578125
0.067,-3.873779296875,2.011962890625,1.411376953125
0.0675,-4.073974609375,1.331298828125,2.292236328125
0.068,-3.713623046875,0.610595703125,2.692626953125
0.0685,-3.833740234375,0.130126953125,3.253173828125
0.069,-3.353271484375,-0.630615234375,3.533447265625
0.0695,-2.952880859375,-1.271240234375,3.853759765625
0.07,-2.072021484375,-2.272216796875,3.973876953125
0.0705,-1.391357421875,-2.872802734375,3.853759765625
0.071,-0.590576171875,-3.393310546875,3.653564453125
0.0715,0.090087890625,-3.873779296875,3.493408203125
0.072,0.810791015625,-4.073974609375,2.972900390625
0.0725,1.571533203125,-4.314208984375,2.412353515625
0.073,2.412353515625,-4.514404296875,1.731689453125
0.0735,2.732666015625,-4.154052734375,1.091064453125
0.074,3.213134765625,-4.154052734375,0.650634765625
0.0745,3.373291015625,-3.593505859375,-0.150146484375
0.075,3.653564453125,-3.193115234375,-0.790771484375
0.0755,3.693603515625,-2.272216796875,-1.791748046875
0.076,3.813720703125,-1.751708984375,-2.432373046875
0.0765,3.453369140625,-0.990966796875,-2.832763671875
0.077,3.533447265625,-0.630615234375,-3.313232421875
0.0775,3.052978515625,0.210205078125,-3.553466796875
0.078,2.572509765625,0.890869140625,-3.793701171875
0.0785,1.851806640625,1.811767578125,-4.033935546875
0.079,1.091064453125,2.292236328125,-3.793701171875
0.0795,0.450439453125,2.892822265625,-3.753662109375
0.08,-0.310302734375,3.253173828125,-3.393310546875
0.0805,-0.990966796875,3.493408203125,-3.072998046875
0.081,-1.831787109375,3.653564453125,-2.392333984375
0.0815,-2.552490234375,3.813720703125,-1.831787109375
0.082,-2.832763671875,3.493408203125,-1.151123046875
0.0825,-3.393310546875,3.613525390625,-0.710693359375
0.083,-3.553466796875,2.892822265625,0.170166015625
0.0835,-3.793701171875,2.492431640625,0.850830078125
0.084,-3.913818359375,1.571533203125,1.931884765625
0.0845,-3.873779296875,1.010986328125,2.412353515625
0.085,-3.673583984375,0.370361328125,2.932861328125
0.0855,-3.593505859375,-0.190185546875,3.373291015625
0.086,-3.072998046875,-0.990966796875,3.653564453125
0.0865,-2.432373046875,-1.751708984375,3.773681640625
0.087,-1.791748046875,-2.592529296875,3.973876953125
0.0875,-0.950927734375,-3.032958984375,3.533447265625
0.088,-0.350341796875,-3.673583984375,3.653564453125
0.0885,0.490478515625,-3.913818359375,3.052978515625
0.089,1.131103515625,-4.154052734375,2.692626953125
0.0895,2.052001953125,-4.354248046875,1.931884765625
0.09,2.532470703125,-4.274169921875,1.451416015625
0.0905,2.852783203125,-3.993896484375,0.850830078125
0.091,3.293212890625,-3.993896484375,0.370361328125
0.0915,3.413330078125,-3.233154296875,-0.510498046875
0.092,3.613525390625,-2.712646484375,-1.231201171875
0.0925,3.813720703125,-1.951904296875,-2.192138671875
0.093,3.533447265625,-1.351318359375,-2.592529296875
0.0935,3.573486328125,-0.790771484375,-3.153076171875
0.094,3.213134765625,-0.190185546875,-3.473388671875
0.0945,2.812744140625,0.610595703125,-3.753662109375
0.095,2.052001953125,1.411376953125,-3.873779296875
0.0955,1.411376953125,2.132080078125,-3.993896484375
0.096,0.610595703125,2.532470703125,-3.553466796875
0.0965,0.090087890625,3.173095703125,-3.713623046875
0.097,-0.790771484375,3.253173828125,-3.072998046875
0.0975,-1.431396484375,3.573486328125,-2.712646484375
0.098,-2.272216796875,3.773681640625,-1.951904296875
0.0985,-2.712646484375,3.613525390625,-1.391357421875
0.099,-3.153076171875,3.533447265625,-0.830810546875
0.0995,-3.473388671875,3.173095703125,-0.230224609375
0.1,-3.593505859375,2.532470703125,0.610595703125
0.1005,-3.793701171875,1.931884765625,1.451416015625
0.101,-3.913818359375,1.251220703125,2.292236328125
0.1015,-3.553466796875,0.570556640625,2.572509765625
0.102,-3.713623046875,0.130126953125,3.213134765625
0.1025,-3.193115234375,-0.670654296875,3.453369140625
0.103,-2.712646484375,-1.351318359375,3.693603515625
0.1035,-1.951904296875,-2.272216796875,3.813720703125
0.104,-1.311279296875,-2.832763671875,3.733642578125
0.1045,-0.550537109375,-3.353271484375,3.453369140625
0.105,0.050048828125,-3.873779296875,3.413330078125
0.1055,0.930908203125,-3.993896484375,2.692626953125
0.106,1.571533203125,-4.194091796875,2.292236328125
0.1065,2.372314453125,-4.354248046875,1.691650390625
0.107,2.652587890625,-3.993896484375,1.131103515625
0.1075,3.173095703125,-4.073974609375,0.610595703125
0.108,3.333251953125,-3.473388671875,-0.190185546875
0.1085,3.573486328125,-2.952880859375,-0.950927734375
0.109,3.693603515625,-2.192138671875,-1.831787109375
0.1095,3.773681640625,-1.631591796875,-2.512451171875
0.11,3.413330078125,-0.950927734375,-2.872802734375
0.1105,3.533447265625,-0.510498046875,-3.393310546875
0.111,2.852783203125,0.410400390625,-3.593505859375
0.1115,2.372314453125,1.131103515625,-3.833740234375
0.112,1.571533203125,1.971923828125,-3.993896484375
0.1125,0.850830078125,2.412353515625,-3.713623046875
0.113,0.170166015625,2.972900390625,-3.593505859375
0.1135,-0.550537109375,3.333251953125,-3.353271484375
0.114,-1.311279296875,3.533447265625,-2.672607421875
0.1145,-2.031982421875,3.693603515625,-2.152099609375
0.115,-2.712646484375,3.773681640625,-1.591552734375
0.1155,-2.952880859375,3.373291015625,-0.950927734375
0.116,-3.553466796875,3.493408203125,-0.470458984375
0.1165,-3.553466796875,2.572509765625,0.530517578125
0.117,-3.793701171875,2.132080078125,1.211181640625
0.1175,-3.833740234375,1.291259765625,2.092041015625
0.118,-3.753662109375,0.770751953125,2.572509765625
0.1185,-3.513427734375,0.130126953125,3.012939453125
0.119,-3.473388671875,-0.390380859375,3.453369140625
0.1195,-2.712646484375,-1.271240234375,3.613525390625
0.12,-2.152099609375,-1.951904296875,3.733642578125
0.1205,-1.431396484375,-2.832763671875,3.813720703125
0.121,-0.710693359375,-3.193115234375,3.453369140625
0.1215,-0.150146484375,-3.793701171875,3.493408203125
0.122,0.730712890625,-3.873779296875,2.852783203125
0.1225,1.411376953125,-4.154052734375,2.412353515625
0.123,2.092041015625,-4.194091796875,1.851806640625
0.1235,2.612548828125,-4.194091796875,1.291259765625
0.124,2.852783203125,-3.873779296875,0.690673828125
0.1245,3.333251953125,-3.833740234375,0.250244140625
0.125,3.373291015625,-2.952880859375,-0.750732421875
0.1255,3.613525390625,-2.552490234375,-1.431396484375
0.126,3.693603515625,-1.791748046875,-2.272216796875
0.1265,3.493408203125,-1.231201171875,-2.592529296875
0.127,3.413330078125,-0.630615234375,-3.153076171875
0.1275,3.133056640625,0.010009765625,-3.473388671875
0.128,2.532470703125,0.810791015625,-3.713623046875
0.1285,1.891845703125,1.491455078125,-3.833740234375
0.129,1.291259765625,2.172119140625,-3.873779296875
0.1295,0.490478515625,2.572509765625,-3.473388671875
0.13,0.010009765625,3.213134765625,-3.593505859375
0.1305,-0.990966796875,3.293212890625,-2.832763671875
0.131,-1.591552734375,3.613525390625,-2.512451171875
0.1315,-2.312255859375,3.653564453125,-1.831787109375
0.132,-2.712646484375,3.533447265625,-1.311279296875
0.1325,-3.072998046875,3.333251953125,-0.750732421875
0.133,-3.433349609375,3.052978515625,-0.110107421875
0.1335,-3.553466796875,2.292236328125,0.810791015625
0.134,-3.753662109375,1.771728515625,1.571533203125
0.1345,-3.833740234375,1.131103515625,2.292236328125
0.135,-3.553466796875,0.490478515625,2.652587890625
0.1355,-3.673583984375,0.010009765625,3.253173828125
0.136,-3.032958984375,-0.870849609375,3.453369140625
0.1365,-2.552490234375,-1.631591796875,3.733642578125
0.137,-1.751708984375,-2.432373046875,3.693603515625
0.1375,-1.111083984375,-2.952880859375,3.693603515625
0.138,-0.350341796875,-3.393310546875,3.373291015625
0.1385,0.290283203125,-3.873779296875,3.293212890625
0.139,1.211181640625,-3.993896484375,2.492431640625
0.1395,1.771728515625,-4.194091796875,2.092041015625
0.14,2.452392578125,-4.194091796875,1.491455078125
0.1405,2.732666015625,-3.953857421875,0.970947265625
0.141,3.173095703125,-3.873779296875,0.410400390625
0.1415,3.333251953125,-3.193115234375,-0.470458984375
0.142,3.533447265625,-2.592529296875,-1.231201171875
0.1425,3.573486328125,-1.951904296875,-1.951904296875
0.143,3.613525390625,-1.431396484375,-2.552490234375
0.1435,3.253173828125,-0.790771484375,-2.872802734375
0.144,3.333251953125,-0.310302734375,-3.393310546875
0.1445,2.532470703125,0.610595703125,-3.553466796875
0.145,2.092041015625,1.291259765625,-3.793701171875
0.1455,1.331298828125,2.052001953125,-3.713623046875
0.146,0.690673828125,2.492431640625,-3.553466796875
0.1465,0.010009765625,2.972900390625,-3.433349609375
0.147,-0.630615234375,3.293212890625,-3.072998046875
0.1475,-1.471435546875,3.493408203125,-2.432373046875
0.148,-2.031982421875,3.573486328125,-2.031982421875
0.1485,-2.632568359375,3.653564453125,-1.471435546875
0.149,-2.912841796875,3.333251953125,-0.910888671875
0.1495,-3.473388671875,3.333251953125,-0.350341796875
0.15,-3.513427734375,2.412353515625,0.650634765625
0.1505,-3.793701171875,1.971923828125,1.371337890625
0.151,-3.753662109375,1.251220703125,2.132080078125
0.1515,-3.753662109375,0.730712890625,2.612548828125
0.152,-3.553466796875,0.050048828125,3.052978515625
0.1525,-3.353271484375,-0.590576171875,3.493408203125
0.153,-2.592529296875,-1.551513671875,3.693603515625
0.1535,-1.951904296875,-2.192138671875,3.773681640625
0.154,-1.271240234375,-2.912841796875,3.813720703125
0.1545,-0.510498046875,-3.353271484375,3.493408203125
0.155,0.130126953125,-3.873779296875,3.413330078125
0.1555,0.970947265625,-3.993896484375,2.692626953125
0.156,1.771728515625,-4.234130859375,2.212158203125
0.1565,2.252197265625,-4.154052734375,1.571533203125
0.157,2.812744140625,-4.194091796875,1.131103515625
0.1575,3.052978515625,-3.753662109375,0.450439453125
0.158,3.453369140625,-3.593505859375,-0.150146484375
0.1585,3.453369140625,-2.592529296875,-1.191162109375
0.159,3.693603515625,-2.192138671875,-1.831787109375
0.1595,3.573486328125,-1.431396484375,-2.512451171875
0.16,3.533447265625,-0.990966796875,-2.952880859375
0.1605,3.253173828125,-0.350341796875,-3.353271484375
0.161,2.852783203125,0.330322265625,-3.593505859375
0.1615,2.172119140625,1.251220703125,-3.833740234375
0.162,1.491455078125,1.891845703125,-3.793701171875
0.1625,0.890869140625,2.532470703125,-3.793701171875
0.163,0.130126953125,2.852783203125,-3.393310546875
0.1635,-0.510498046875,3.413330078125,-3.393310546875
0.164,-1.431396484375,3.453369140625,-2.512451171875
0.1645,-2.072021484375,3.693603515625,-2.112060546875
0.165,-2.592529296875,3.573486328125,-1.471435546875
0.1655,-3.072998046875,3.533447265625,-0.990966796875
0.166,-3.353271484375,3.173095703125,-0.310302734375
0.1665,-3.633544921875,2.812744140625,0.410400390625
0.167,-3.753662109375,1.931884765625,1.411376953125
0.1675,-3.833740234375,1.411376953125,2.011962890625
0.168,-3.833740234375,0.610595703125,2.612548828125
0.1685,-3.513427734375,0.090087890625,2.972900390625
0.169,-3.473388671875,-0.590576171875,3.533447265625
0.1695,-2.712646484375,-1.311279296875,3.653564453125
0.17,-2.112060546875,-2.152099609375,3.853759765625
0.1705,-1.311279296875,-2.712646484375,3.653564453125
0.171,-0.710693359375,-3.353271484375,3.693603515625
0.1715,0.130126953125,-3.633544921875,3.213134765625
0.172,0.650634765625,-4.033935546875,3.052978515625
0.1725,1.611572265625,-4.154052734375,2.212158203125
0.173,2.172119140625,-4.194091796875,1.771728515625
0.1735,2.692626953125,-4.154052734375,1.171142578125
0.174,3.012939453125,-3.913818359375,0.610595703125
0.1745,3.333251953125,-3.633544921875,0.010009765625
0.175,3.453369140625,-2.952880859375,-0.830810546875
0.1755,3.653564453125,-2.272216796875,-1.751708984375
0.176,3.573486328125,-1.671630859375,-2.232177734375
0.1765,3.613525390625,-1.231201171875,-2.872802734375
0.177,3.373291015625,-0.510498046875,-3.193115234375
0.1775,3.173095703125,0.090087890625,-3.593505859375
0.178,2.372314453125,1.051025390625,-3.793701171875
0.1785,1.851806640625,1.771728515625,-3.953857421875
0.179,0.970947265625,2.372314453125,-3.753662109375
0.1795,0.410400390625,2.892822265625,-3.713623046875
0.18,-0.390380859375,3.293212890625,-3.393310546875
0.1805,-1.031005859375,3.533447265625,-2.952880859375
0.181,-2.031982421875,3.813720703125,-2.232177734375
0.1815,-2.512451171875,3.693603515625,-1.711669921875
0.182,-3.153076171875,3.733642578125,-1.151123046875
0.1825,-3.353271484375,3.333251953125,-0.510498046875
0.183,-3.753662109375,3.093017578125,0.250244140625
0.1835,-3.833740234375,2.132080078125,1.251220703125
0.184,-4.033935546875,1.531494140625,2.052001953125
0.1845,-3.793701171875,0.730712890625,2.612548828125
0.185,-3.833740234375,0.170166015625,3.133056640625
0.1855,-3.393310546875,-0.550537109375,3.533447265625
0.186,-3.072998046875,-1.151123046875,3.853759765625
0.1865,-2.192138671875,-2.232177734375,4.013916015625
0.187,-1.471435546875,-2.832763671875,3.893798828125
0.1875,-0.670654296875,-3.473388671875,3.733642578125
0.188,0.050048828125,-3.833740234375,3.493408203125
