wavelength,x,y,z
0.0,4.494384765625,1.571533203125,-5.955810546875
0.0005,4.814697265625,0.770751953125,-5.795654296875
0.001,4.694580078125,-0.470458984375,-4.914794921875
0.0015,4.814697265625,-1.351318359375,-4.194091796875
0.002,4.734619140625,-2.552490234375,-3.273193359375
0.0025,4.494384765625,-3.633544921875,-2.592529296875
0.003,4.574462890625,-4.354248046875,-1.871826171875
0.0035,3.853759765625,-4.994873046875,-0.830810546875
0.004,3.052978515625,-5.275146484375,0.330322265625
0.0045,2.092041015625,-5.675537109375,1.811767578125
0.005,1.211181640625,-5.795654296875,2.772705078125
0.0055,0.530517578125,-6.115966796875,3.693603515625
0.006,-0.510498046875,-6.115966796875,4.654541015625
0.0065,-1.591552734375,-5.355224609375,4.974853515625
0.007,-2.712646484375,-4.554443359375,5.615478515625
0.0075,-3.793701171875,-3.553466796875,5.735595703125
0.008,-4.474365234375,-2.592529296875,5.775634765625
0.0085,-4.994873046875,-1.991943359375,5.815673828125
0.009,-5.114990234375,-1.031005859375,5.335205078125
0.0095,-5.074951171875,0.130126953125,4.574462890625
0.01,-5.195068359375,1.291259765625,3.813720703125
0.0105,-5.074951171875,2.292236328125,2.932861328125
0.011,-4.874755859375,3.213134765625,1.971923828125
0.0115,-4.674560546875,4.013916015625,1.211181640625
0.012,-3.873779296875,4.334228515625,0.130126953125
0.0125,-3.072998046875,4.814697265625,-1.111083984375
0.013,-1.991943359375,5.094970703125,-2.392333984375
0.0135,-1.191162109375,5.255126953125,-3.353271484375
0.014,-0.470458984375,5.535400390625,-4.234130859375
0.0145,0.610595703125,5.175048828125,-4.994873046875
0.015,1.851806640625,4.214111328125,-5.395263671875
0.0155,2.932861328125,3.413330078125,-5.955810546875
0.016,3.693603515625,2.292236328125,-5.915771484375
0.0165,4.494384765625,1.411376953125,-6.075927734375
0.017,4.734619140625,0.650634765625,-5.835693359375
0.0175,4.774658203125,-0.350341796875,-5.074951171875
0.018,4.774658203125,-1.311279296875,-4.154052734375
0.0185,4.814697265625,-2.552490234375,-3.273193359375
0.019,4.654541015625,-3.393310546875,-2.472412109375
0.0195,4.534423828125,-4.434326171875,-1.791748046875
0.02,3.973876953125,-4.954833984375,-0.750732421875
0.0205,3.052978515625,-5.275146484375,0.410400390625
0.021,2.052001953125,-5.635498046875,1.891845703125
0.0215,1.131103515625,-5.875732421875,2.892822265625
0.022,0.290283203125,-6.075927734375,3.813720703125
0.0225,-0.510498046875,-6.156005859375,4.694580078125
0.023,-1.591552734375,-5.435302734375,5.135009765625
0.0235,-2.832763671875,-4.514404296875,5.695556640625
0.024,-3.913818359375,-3.473388671875,5.975830078125
0.0245,-4.514404296875,-2.512451171875,5.935791015625
0.025,-5.155029296875,-1.831787109375,5.935791015625
0.0255,-5.315185546875,-0.990966796875,5.535400390625
0.026,-5.235107421875,0.250244140625,4.654541015625
0.0265,-5.275146484375,1.411376953125,3.853759765625
0.027,-5.155029296875,2.532470703125,2.852783203125
0.0275,-4.874755859375,3.373291015625,1.851806640625
0.028,-4.794677734375,4.214111328125,1.131103515625
0.0285,-3.993896484375,4.494384765625,0.130126953125
0.029,-2.952880859375,4.894775390625,-1.231201171875
0.0295,-1.951904296875,5.255126953125,-2.512451171875
0.03,-1.071044921875,5.375244140625,-3.553466796875
0.0305,-0.310302734375,5.535400390625,-4.474365234375
0.031,0.610595703125,5.415283203125,-5.235107421875
0.0315,1.771728515625,4.334228515625,-5.595458984375
0.032,3.052978515625,3.533447265625,-6.115966796875
0.0325,3.893798828125,2.412353515625,-5.955810546875
0.033,4.614501953125,1.331298828125,-6.115966796875
0.0335,5.054931640625,0.650634765625,-6.035888671875
0.034,5.014892578125,-0.390380859375,-5.315185546875
0.0345,4.974853515625,-1.471435546875,-4.154052734375
0.035,5.054931640625,-2.792724609375,-3.393310546875
0.0355,4.814697265625,-3.713623046875,-2.432373046875
0.036,4.614501953125,-4.634521484375,-1.631591796875
0.0365,4.093994140625,-5.355224609375,-0.630615234375
0.037,3.173095703125,-5.515380859375,0.450439453125
0.0375,1.971923828125,-5.915771484375,1.931884765625
0.038,1.010986328125,-6.115966796875,3.133056640625
0.0385,0.090087890625,-6.236083984375,4.053955078125
0.039,-0.630615234375,-6.356201171875,4.974853515625
0.0395,-1.671630859375,-5.755615234375,5.535400390625
0.04,-3.072998046875,-4.594482421875,5.935791015625
0.0405,-4.354248046875,-3.633544921875,6.416259765625
0.041,-4.994873046875,-2.512451171875,6.256103515625
0.0415,-5.515380859375,-1.631591796875,6.135986328125
0.042,-5.755615234375,-0.750732421875,5.895751953125
0.0425,-5.595458984375,0.410400390625,4.934814453125
0.043,-5.555419921875,1.691650390625,3.853759765625
0.0435,-5.395263671875,2.972900390625,2.732666015625
0.044,-5.114990234375,3.933837890625,1.771728515625
0.0445,-4.914794921875,4.694580078125,0.890869140625
0.045,-4.114013671875,5.094970703125,-0.270263671875
0.0455,-2.912841796875,5.335205078125,-1.591552734375
0.046,-1.791748046875,5.695556640625,-3.072998046875
0.0465,-0.630615234375,5.695556640625,-4.194091796875
0.047,0.290283203125,5.815673828125,-5.034912109375
0.0475,1.010986328125,5.695556640625,-5.835693359375
0.048,2.452392578125,4.614501953125,-6.316162109375
0.0485,3.613525390625,3.253173828125,-6.676513671875
0.049,4.774658203125,2.052001953125,-6.916748046875
0.0495,5.295166015625,1.010986328125,-6.556396484375
0.05,5.615478515625,0.130126953125,-6.556396484375
0.0505,5.655517578125,-0.910888671875,-5.635498046875
0.051,5.415283203125,-2.192138671875,-4.354248046875
0.0515,5.335205078125,-3.553466796875,-3.233154296875
0.052,5.054931640625,-4.554443359375,-2.072021484375
0.0525,4.614501953125,-5.435302734375,-1.111083984375
0.053,4.294189453125,-5.955810546875,-0.190185546875
0.0535,3.133056640625,-6.156005859375,0.970947265625
0.054,1.691650390625,-6.316162109375,2.652587890625
0.0545,0.490478515625,-6.596435546875,3.973876953125
0.055,-0.710693359375,-6.476318359375,4.934814453125
0.0555,-1.271240234375,-6.476318359375,5.655517578125
0.056,-2.352294921875,-5.995849609375,6.296142578125
0.0565,-3.713623046875,-4.714599609375,6.416259765625
0.057,-4.874755859375,-3.393310546875,6.896728515625
0.0575,-5.715576171875,-2.192138671875,6.696533203125
0.058,-6.156005859375,-1.151123046875,6.456298828125
0.0585,-6.316162109375,-0.350341796875,6.176025390625
0.059,-6.075927734375,0.890869140625,5.094970703125
0.0595,-5.835693359375,2.292236328125,3.813720703125
0.06,-5.715576171875,3.573486328125,2.572509765625
0.0605,-5.235107421875,4.494384765625,1.451416015625
0.061,-4.874755859375,5.175048828125,0.530517578125
0.0615,-4.234130859375,5.615478515625,-0.510498046875
0.062,-2.912841796875,5.695556640625,-1.791748046875
0.0625,-1.591552734375,5.975830078125,-3.313232421875
0.063,-0.350341796875,5.935791015625,-4.594482421875
0.0635,0.690673828125,5.855712890625,-5.435302734375
0.064,1.251220703125,5.895751953125,-6.156005859375
0.0645,2.532470703125,4.934814453125,-6.716552734375
0.065,3.813720703125,3.533447265625,-6.876708984375
0.0655,4.814697265625,2.252197265625,-7.076904296875
0.066,5.535400390625,1.171142578125,-6.796630859375
0.0665,5.895751953125,0.250244140625,-6.516357421875
0.067,6.015869140625,-0.790771484375,-6.075927734375
0.0675,5.655517578125,-1.951904296875,-4.834716796875
0.068,5.455322265625,-3.233154296875,-3.673583984375
0.0685,5.255126953125,-4.514404296875,-2.272216796875
0.069,4.814697265625,-5.395263671875,-1.311279296875
0.0695,4.494384765625,-5.955810546875,-0.310302734375
0.07,3.533447265625,-6.316162109375,0.690673828125
0.0705,2.052001953125,-6.516357421875,2.212158203125
0.071,0.890869140625,-6.676513671875,3.573486328125
0.0715,-0.510498046875,-6.676513671875,4.694580078125
0.072,-1.111083984375,-6.556396484375,5.455322265625
0.0725,-1.951904296875,-6.436279296875,6.336181640625
0.073,-3.193115234375,-5.235107421875,6.456298828125
0.0735,-4.474365234375,-3.993896484375,6.856689453125
0.074,-5.475341796875,-2.672607421875,6.856689453125
0.0745,-6.035888671875,-1.591552734375,6.576416015625
0.075,-6.276123046875,-0.790771484375,6.416259765625
0.0755,-6.236083984375,0.330322265625,5.615478515625
0.076,-5.995849609375,1.651611328125,4.374267578125
0.0765,-5.755615234375,2.932861328125,3.173095703125
0.077,-5.475341796875,4.134033203125,2.011962890625
0.0775,-5.034912109375,4.894775390625,0.930908203125
0.078,-4.674560546875,5.575439453125,0.130126953125
0.0785,-3.553466796875,5.655517578125,-1.151123046875
0.079,-2.272216796875,5.855712890625,-2.632568359375
0.0795,-0.950927734375,6.055908203125,-4.154052734375
0.08,0.290283203125,6.055908203125,-4.994873046875
0.0805,0.810791015625,5.815673828125,-5.835693359375
0.081,2.011962890625,5.455322265625,-6.596435546875
0.0815,3.253173828125,4.093994140625,-6.716552734375
0.082,4.494384765625,2.892822265625,-7.197021484375
0.0825,5.335205078125,1.651611328125,-6.916748046875
0.083,5.775634765625,0.530517578125,-6.676513671875
0.0835,6.015869140625,-0.350341796875,-6.396240234375
0.084,5.735595703125,-1.471435546875,-5.315185546875
0.0845,5.575439453125,-2.832763671875,-4.114013671875
0.085,5.415283203125,-4.194091796875,-2.832763671875
0.0855,5.054931640625,-5.114990234375,-1.711669921875
0.086,4.614501953125,-5.755615234375,-0.630615234375
0.0865,4.013916015625,-6.396240234375,0.290283203125
0.087,2.612548828125,-6.396240234375,1.731689453125
0.0875,1.331298828125,-6.676513671875,3.133056640625
0.088,-0.150146484375,-6.596435546875,4.574462890625
0.0885,-0.910888671875,-6.716552734375,5.175048828125
0.089,-1.751708984375,-6.676513671875,6.095947265625
0.0895,-2.832763671875,-5.675537109375,6.536376953125
0.09,-4.194091796875,-4.274169921875,6.856689453125
0.0905,-5.315185546875,-3.072998046875,7.016845703125
0.091,-5.915771484375,-1.831787109375,6.776611328125
0.0915,-6.316162109375,-0.910888671875,6.456298828125
0.092,-6.436279296875,0.130126953125,5.975830078125
0.0925,-6.115966796875,1.331298828125,4.774658203125
0.093,-5.875732421875,2.572509765625,3.533447265625
0.0935,-5.595458984375,3.973876953125,2.212158203125
0.094,-5.114990234375,4.774658203125,1.131103515625
0.0945,-4.874755859375,5.415283203125,0.290283203125
0.095,-3.833740234375,5.695556640625,-0.870849609375
0.0955,-2.472412109375,5.895751953125,-2.272216796875
0.096,-1.271240234375,6.055908203125,-3.793701171875
0.0965,0.250244140625,5.895751953125,-5.034912109375
0.097,0.770751953125,5.815673828125,-5.635498046875
0.0975,1.611572265625,5.655517578125,-6.436279296875
0.098,2.812744140625,4.534423828125,-6.556396484375
0.0985,4.013916015625,3.253173828125,-6.916748046875
0.099,5.094970703125,1.971923828125,-6.916748046875
0.0995,5.575439453125,0.930908203125,-6.596435546875
0.1,5.815673828125,0.130126953125,-6.436279296875
0.1005,5.735595703125,-0.990966796875,-5.715576171875
0.101,5.495361328125,-2.192138671875,-4.514404296875
0.1015,5.375244140625,-3.473388671875,-3.393310546875
0.102,5.054931640625,-4.514404296875,-2.192138671875
0.1025,4.614501953125,-5.275146484375,-1.031005859375
0.103,4.334228515625,-5.995849609375,-0.350341796875
0.1035,3.173095703125,-6.196044921875,0.890869140625
0.104,1.971923828125,-6.356201171875,2.212158203125
0.1045,0.810791015625,-6.676513671875,3.493408203125
0.105,-0.390380859375,-6.436279296875,4.534423828125
0.1055,-1.031005859375,-6.636474609375,5.375244140625
0.106,-1.951904296875,-6.115966796875,6.055908203125
0.1065,-3.153076171875,-4.914794921875,6.296142578125
0.107,-4.394287109375,-3.833740234375,6.656494140625
0.1075,-5.275146484375,-2.632568359375,6.576416015625
0.108,-5.755615234375,-1.591552734375,6.376220703125
0.1085,-6.075927734375,-0.830810546875,6.216064453125
0.109,-5.915771484375,0.290283203125,5.375244140625
0.1095,-5.715576171875,1.571533203125,4.174072265625
0.11,-5.635498046875,2.852783203125,3.173095703125
0.1105,-5.275146484375,3.853759765625,1.971923828125
0.111,-5.034912109375,4.614501953125,1.091064453125
0.1115,-4.514404296875,5.255126953125,0.130126953125
0.112,-3.473388671875,5.375244140625,-1.111083984375
0.1125,-2.192138671875,5.735595703125,-2.512451171875
0.113,-0.990966796875,5.815673828125,-3.753662109375
0.1135,0.010009765625,5.735595703125,-4.754638671875
0.114,0.770751953125,5.975830078125,-5.635498046875
0.1145,1.771728515625,5.175048828125,-6.115966796875
0.115,3.093017578125,3.893798828125,-6.556396484375
0.1155,4.254150390625,2.812744140625,-6.716552734375
0.116,4.934814453125,1.651611328125,-6.556396484375
0.1165,5.415283203125,0.730712890625,-6.396240234375
0.117,5.615478515625,-0.270263671875,-6.035888671875
0.1175,5.375244140625,-1.311279296875,-4.994873046875
0.118,5.255126953125,-2.512451171875,-3.993896484375
0.1185,5.054931640625,-3.793701171875,-2.752685546875
0.119,4.734619140625,-4.634521484375,-1.751708984375
0.1195,4.494384765625,-5.435302734375,-0.990966796875
0.12,3.733642578125,-5.755615234375,0.250244140625
0.1205,2.492431640625,-5.955810546875,1.451416015625
0.121,1.331298828125,-6.276123046875,2.852783203125
0.1215,0.330322265625,-6.276123046875,3.853759765625
0.122,-0.550537109375,-6.436279296875,4.614501953125
0.1225,-1.271240234375,-6.276123046875,5.495361328125
0.123,-2.312255859375,-5.395263671875,5.775634765625
0.1235,-3.553466796875,-4.234130859375,6.176025390625
0.124,-4.554443359375,-3.072998046875,6.336181640625
0.1245,-5.195068359375,-2.152099609375,6.176025390625
0.125,-5.635498046875,-1.351318359375,6.135986328125
0.1255,-5.635498046875,-0.430419921875,5.575439453125
0.126,-5.435302734375,0.730712890625,4.494384765625
0.1265,-5.475341796875,1.931884765625,3.693603515625
0.127,-5.155029296875,3.012939453125,2.532470703125
0.1275,-4.994873046875,3.893798828125,1.611572265625
0.128,-4.754638671875,4.614501953125,0.810791015625
0.1285,-3.753662109375,4.854736328125,-0.270263671875
0.129,-2.832763671875,5.094970703125,-1.471435546875
0.1295,-1.631591796875,5.375244140625,-2.952880859375
0.13,-0.830810546875,5.415283203125,-3.753662109375
0.1305,0.010009765625,5.535400390625,-4.794677734375
0.131,0.850830078125,5.415283203125,-5.395263671875
0.1315,1.971923828125,4.494384765625,-5.715576171875
0.132,3.133056640625,3.613525390625,-6.156005859375
0.1325,4.013916015625,2.412353515625,-6.196044921875
0.133,4.614501953125,1.491455078125,-6.115966796875
0.1335,5.094970703125,0.770751953125,-6.115966796875
0.134,4.974853515625,-0.270263671875,-5.435302734375
0.1345,4.934814453125,-1.271240234375,-4.594482421875
0.135,4.974853515625,-2.472412109375,-3.713623046875
0.1355,4.774658203125,-3.473388671875,-2.672607421875
0.136,4.614501953125,-4.354248046875,-1.871826171875
0.1365,4.294189453125,-5.114990234375,-0.990966796875
0.137,3.333251953125,-5.355224609375,0.130126953125
0.1375,2.492431640625,-5.835693359375,1.211181640625
0.138,1.331298828125,-5.875732421875,2.572509765625
0.1385,0.650634765625,-6.075927734375,3.413330078125
0.139,-0.270263671875,-6.276123046875,4.494384765625
0.1395,-1.151123046875,-5.715576171875,5.054931640625
0.14,-2.352294921875,-4.914794921875,5.455322265625
0.1405,-3.553466796875,-3.993896484375,5.895751953125
0.141,-4.314208984375,-3.072998046875,5.895751953125
0.1415,-4.914794921875,-2.152099609375,5.895751953125
0.142,-5.275146484375,-1.351318359375,5.815673828125
0.1425,-5.155029296875,-0.390380859375,5.094970703125
0.143,-5.195068359375,0.650634765625,4.334228515625
0.1435,-5.195068359375,1.891845703125,3.373291015625
0.144,-5.114990234375,2.772705078125,2.492431640625
0.1445,-4.954833984375,3.693603515625,1.651611328125
0.145,-4.394287109375,4.254150390625,0.890869140625
0.1455,-3.513427734375,4.494384765625,-0.470458984375
0.146,-2.592529296875,5.135009765625,-1.591552734375
0.1465,-1.591552734375,5.135009765625,-2.752685546875
0.147,-0.870849609375,5.375244140625,-3.833740234375
0.1475,0.010009765625,5.535400390625,-4.634521484375
0.148,1.010986328125,4.854736328125,-5.114990234375
0.1485,2.172119140625,4.093994140625,-5.595458984375
0.149,3.213134765625,3.052978515625,-5.915771484375
0.1495,3.973876953125,2.092041015625,-5.915771484375
0.15,4.534423828125,1.371337890625,-6.035888671875
0.1505,4.734619140625,0.530517578125,-5.635498046875
0.151,4.734619140625,-0.590576171875,-4.914794921875
0.1515,4.814697265625,-1.591552734375,-4.194091796875
0.152,4.734619140625,-2.712646484375,-3.233154296875
0.1525,4.574462890625,-3.633544921875,-2.432373046875
0.153,4.494384765625,-4.554443359375,-1.631591796875
0.1535,3.733642578125,-4.954833984375,-0.630615234375
0.154,2.932861328125,-5.315185546875,0.490478515625
0.1545,1.971923828125,-5.715576171875,1.851806640625
0.155,1.211181640625,-5.835693359375,2.772705078125
0.1555,0.450439453125,-6.156005859375,3.853759765625
0.156,-0.510498046875,-5.915771484375,4.654541015625
0.1565,-1.791748046875,-5.275146484375,5.094970703125
0.157,-2.912841796875,-4.394287109375,5.615478515625
0.1575,-3.873779296875,-3.353271484375,5.815673828125
0.158,-4.594482421875,-2.472412109375,5.815673828125
0.1585,-5.074951171875,-1.751708984375,5.895751953125
0.159,-5.074951171875,-0.830810546875,5.295166015625
0.1595,-5.195068359375,0.290283203125,4.534423828125
0.16,-5.195068359375,1.451416015625,3.733642578125
0.1605,-4.994873046875,2.572509765625,2.812744140625
0.161,-4.994873046875,3.333251953125,1.931884765625
0.1615,-4.514404296875,4.093994140625,0.970947265625
0.162,-3.713623046875,4.374267578125,0.010009765625
0.1625,-2.952880859375,4.814697265625,-1.351318359375
0.163,-1.871826171875,5.094970703125,-2.472412109375
0.1635,-1.111083984375,5.295166015625,-3.393310546875
0.164,-0.390380859375,5.575439453125,-4.434326171875
0.1645,0.690673828125,5.094970703125,-4.994873046875
0.165,1.931884765625,4.214111328125,-5.475341796875
0.1655,3.093017578125,3.253173828125,-5.915771484375
0.166,3.853759765625,2.252197265625,-5.955810546875
0.1665,4.494384765625,1.451416015625,-6.035888671875
0.167,4.814697265625,0.610595703125,-5.795654296875
0.1675,4.774658203125,-0.430419921875,-5.034912109375
0.168,4.814697265625,-1.431396484375,-4.354248046875
0.1685,4.774658203125,-2.672607421875,-3.353271484375
0.169,4.614501953125,-3.633544921875,-2.432373046875
0.1695,4.534423828125,-4.514404296875,-1.791748046875
0.17,3.893798828125,-4.954833984375,-0.790771484375
0.1705,3.052978515625,-5.155029296875,0.490478515625
0.171,2.052001953125,-5.715576171875,1.771728515625
0.1715,1.010986328125,-5.755615234375,3.052978515625
0.172,0.410400390625,-6.075927734375,3.813720703125
0.1725,-0.710693359375,-6.196044921875,4.774658203125
0.173,-1.631591796875,-5.435302734375,5.094970703125
0.1735,-2.872802734375,-4.554443359375,5.655517578125
0.174,-3.913818359375,-3.433349609375,5.935791015625
0.1745,-4.594482421875,-2.512451171875,5.935791015625
0.175,-5.114990234375,-1.791748046875,5.975830078125
0.1755,-5.275146484375,-0.950927734375,5.495361328125
0.176,-5.315185546875,0.250244140625,4.614501953125
0.1765,-5.275146484375,1.371337890625,3.813720703125
0.177,-5.114990234375,2.612548828125,2.932861328125
0.1775,-4.874755859375,3.413330078125,1.851806640625
0.178,-4.674560546875,4.334228515625,1.091064453125
0.1785,-3.873779296875,4.494384765625,0.130126953125
0.179,-2.952880859375,4.814697265625,-1.351318359375
0.1795,-1.951904296875,5.255126953125,-2.552490234375
0.18,-0.990966796875,5.375244140625,-3.553466796875
0.1805,-0.310302734375,5.615478515625,-4.514404296875
0.181,0.690673828125,5.335205078125,-5.275146484375
0.1815,1.971923828125,4.334228515625,-5.635498046875
0.182,3.173095703125,3.413330078125,-6.115966796875
0.1825,4.093994140625,2.292236328125,-6.156005859375
0.183,4.694580078125,1.331298828125,-6.115966796875
0.1835,5.094970703125,0.610595703125,-6.035888671875
0.184,4.974853515625,-0.510498046875,-5.275146484375
0.1845,4.934814453125,-1.671630859375,-4.354248046875
0.185,4.974853515625,-2.952880859375,-3.313232421875
0.1855,4.774658203125,-3.953857421875,-2.352294921875
0.186,4.574462890625,-4.754638671875,-1.551513671875
0.1865,4.134033203125,-5.315185546875,-0.630615234375
0.187,3.012939453125,-5.475341796875,0.690673828125
0.1875,2.011962890625,-5.915771484375,1.971923828125
0.188,0.810791015625,-6.035888671875,3.373291015625
