wavelength,x,y,z
0.0,23.507934570312,-10.725463867188,-12.887573242188
0.0005,23.588012695312,-7.0819091796875,-16.691284179688
0.001,21.946411132812,-3.3582763671875,-18.853393554688
0.0015,20.304809570312,1.5665283203125,-21.936401367188
0.002,16.981567382812,6.0509033203125,-23.097534179688
0.0025,12.417114257812,10.855590820312,-23.377807617188
0.003,9.2540283203125,14.379028320312,-23.698120117188
0.0035,4.4893798828125,17.942504882812,-22.496948242188
0.004,0.4053955078125,20.304809570312,-20.855346679688
0.0045,-3.7987060546875,22.546997070312,-18.973510742188
0.005,-9.2440185546875,23.988403320312,-15.089721679688
0.0055,-13.127807617188,23.147583007812,-10.525268554688
0.006,-16.851440429688,23.868286132812,-7.5623779296875
0.0065,-19.534057617188,22.226684570312,-3.2381591796875
0.007,-22.456909179688,20.785278320312,1.2462158203125
0.0075,-23.217651367188,17.742309570312,5.0499267578125
0.008,-23.858276367188,13.458129882812,9.9747314453125
0.0085,-23.417846679688,9.5743408203125,13.498168945312
0.009,-23.097534179688,5.4903564453125,17.301879882812
0.0095,-21.295776367188,1.6466064453125,19.423950195312
0.01,-19.413940429688,-3.0780029296875,22.106567382812
0.0105,-15.770385742188,-7.8026123046875,23.227661132812
0.011,-10.925659179688,-12.166870117188,22.707153320312
0.0115,-8.0828857421875,-15.570190429688,23.347778320312
0.012,-2.8778076171875,-18.813354492188,21.385864257812
0.0125,1.4063720703125,-21.455932617188,19.824340820312
0.013,5.5704345703125,-23.017456054688,17.301879882812
0.0135,10.855590820312,-24.138549804688,13.297973632812
0.014,14.579223632812,-23.377807617188,8.8536376953125
0.0145,18.382934570312,-23.778198242188,5.5303955078125
0.015,20.785278320312,-21.816284179688,1.2462158203125
0.0155,23.668090820312,-20.054565429688,-3.5584716796875
0.016,23.668090820312,-16.290893554688,-7.4022216796875
0.0165,23.988403320312,-11.886596679688,-12.206909179688
0.017,23.588012695312,-8.5633544921875,-15.249877929688
0.0175,22.466918945312,-3.7987060546875,-18.893432617188
0.018,20.545043945312,0.3253173828125,-21.015502929688
0.0185,18.102661132812,4.8096923828125,-23.017456054688
0.019,14.098754882812,9.7344970703125,-23.938354492188
0.0195,9.1339111328125,13.858520507812,-23.097534179688
0.02,6.2911376953125,17.181762695312,-23.537963867188
0.0205,0.9659423828125,20.024536132812,-21.135620117188
0.021,-3.4783935546875,22.747192382812,-19.534057617188
0.0215,-7.7625732421875,23.347778320312,-15.890502929688
0.022,-12.687377929688,24.268676757812,-12.046752929688
0.0225,-16.010620117188,23.387817382812,-7.9627685546875
0.023,-19.614135742188,23.107543945312,-4.1190185546875
0.0235,-21.736206054688,20.985473632812,0.1651611328125
0.024,-24.218627929688,18.903442382812,4.7696533203125
0.0245,-23.698120117188,14.539184570312,8.7335205078125
0.025,-23.778198242188,10.094848632812,13.338012695312
0.0255,-23.618041992188,7.0919189453125,16.220825195312
0.026,-21.896362304688,2.1270751953125,19.504028320312
0.0265,-19.854370117188,-2.0770263671875,21.626098632812
0.027,-16.771362304688,-6.3612060546875,22.787231445312
0.0275,-12.807495117188,-11.045776367188,23.547973632812
0.028,-8.0428466796875,-14.729370117188,22.426879882812
0.0285,-4.8397216796875,-17.852416992188,22.346801757812
0.029,0.2852783203125,-20.454956054688,19.904418945312
0.0295,4.6094970703125,-23.137573242188,18.422973632812
0.03,9.0137939453125,-23.017456054688,13.898559570312
0.0305,13.498168945312,-23.858276367188,10.375122070312
0.031,16.781372070312,-23.337768554688,6.6915283203125
0.0315,20.024536132812,-22.496948242188,2.6075439453125
0.032,22.066528320312,-20.334838867188,-1.6766357421875
0.0325,23.748168945312,-17.812377929688,-6.0008544921875
0.033,23.307739257812,-13.448120117188,-9.9647216796875
0.0335,22.987426757812,-9.0838623046875,-14.048706054688
0.034,22.907348632812,-6.3211669921875,-16.771362304688
0.0345,20.905395507812,-1.2762451171875,-19.774291992188
0.035,18.903442382812,2.9278564453125,-21.976440429688
0.0355,15.099731445312,7.3321533203125,-22.496948242188
0.036,11.456176757812,11.816528320312,-23.337768554688
0.0365,7.0919189453125,15.339965820312,-22.536987304688
0.037,3.4483642578125,18.262817382812,-21.816284179688
0.0375,-1.1561279296875,20.585083007812,-19.614135742188
0.038,-5.6405029296875,23.067504882812,-17.692260742188
0.0385,-9.8846435546875,22.546997070312,-13.007690429688
0.039,-14.048706054688,23.227661132812,-9.6444091796875
0.0395,-17.171752929688,22.827270507812,-6.2811279296875
0.04,-20.174682617188,21.546020507812,-1.9168701171875
0.0405,-22.176635742188,19.383911132812,2.2872314453125
0.041,-23.137573242188,16.140747070312,6.5313720703125
0.0415,-23.177612304688,12.176879882812,10.695434570312
0.042,-22.657104492188,7.8927001953125,14.459106445312
0.0425,-22.296752929688,5.0098876953125,17.101684570312
0.043,-20.214721679688,0.0850830078125,19.944458007812
0.0435,-18.092651367188,-4.3192138671875,22.066528320312
0.044,-13.808471679688,-8.6033935546875,22.026489257812
0.0445,-10.405151367188,-12.727416992188,22.747192382812
0.045,-6.2811279296875,-16.170776367188,22.066528320312
0.0455,-1.9569091796875,-19.173706054688,20.785278320312
0.046,2.2471923828125,-21.295776367188,18.863403320312
0.0465,7.3721923828125,-23.417846679688,15.980590820312
0.047,11.296020507812,-22.897338867188,11.536254882812
0.0475,15.460083007812,-23.337768554688,7.9727783203125
0.048,18.262817382812,-22.777221679688,4.5694580078125
0.0485,21.305786132812,-21.215698242188,0.0050048828125
0.049,23.107543945312,-18.773315429688,-4.3592529296875
0.0495,23.307739257812,-14.689331054688,-8.6834716796875
0.05,23.547973632812,-11.045776367188,-12.647338867188
0.0505,22.827270507812,-6.6815185546875,-16.370971679688
0.051,21.866333007812,-3.0780029296875,-18.973510742188
0.0515,19.704223632812,1.6466064453125,-21.495971679688
0.052,16.821411132812,6.5313720703125,-23.457885742188
0.0525,11.896606445312,10.775512695312,-22.777221679688
0.053,8.6534423828125,14.659301757812,-23.377807617188
0.0535,4.3292236328125,17.782348632812,-22.176635742188
0.054,-0.3953857421875,20.865356445312,-20.655151367188
0.0545,-4.3592529296875,22.546997070312,-18.453002929688
0.055,-9.8045654296875,24.028442382812,-14.609252929688
0.0555,-13.528198242188,23.507934570312,-10.485229492188
0.056,-17.652221679688,23.628051757812,-6.4412841796875
0.0565,-20.094604492188,22.346801757812,-2.8377685546875
0.057,-22.897338867188,20.464965820312,1.8868408203125
0.0575,-24.138549804688,17.421997070312,6.2911376953125
0.058,-23.578002929688,12.697387695312,10.535278320312
0.0585,-23.898315429688,9.4542236328125,14.178833007812
0.059,-22.777221679688,4.8096923828125,17.702270507812
0.0595,-21.335815429688,0.7657470703125,20.344848632812
0.06,-18.933471679688,-3.5985107421875,22.266723632812
0.0605,-15.530151367188,-8.8035888671875,23.988403320312
0.061,-10.445190429688,-12.647338867188,22.747192382812
0.0615,-7.1219482421875,-16.531127929688,23.267700195312
0.062,-2.5975341796875,-19.133666992188,21.345825195312
0.0625,2.2071533203125,-22.096557617188,19.704223632812
0.063,6.2510986328125,-23.217651367188,16.901489257812
0.0635,11.376098632812,-23.978393554688,12.537231445312
0.064,14.739379882812,-23.698120117188,9.0137939453125
0.0645,18.903442382812,-23.377807617188,4.5294189453125
0.065,21.105590820312,-21.856323242188,0.9259033203125
0.0655,23.507934570312,-19.774291992188,-3.6385498046875
0.066,24.308715820312,-16.290893554688,-8.0428466796875
0.0665,23.347778320312,-11.245971679688,-12.206909179688
0.067,23.788208007812,-8.4031982421875,-15.530151367188
0.0675,22.066528320312,-3.6785888671875,-18.573120117188
0.068,20.585083007812,0.6055908203125,-21.295776367188
0.0685,17.702270507812,4.5694580078125,-22.376831054688
0.069,13.978637695312,9.7344970703125,-23.778198242188
0.0695,9.3341064453125,13.257934570312,-22.697143554688
0.07,5.6905517578125,17.221801757812,-22.977416992188
0.0705,1.4063720703125,19.383911132812,-20.935424804688
0.071,-3.0780029296875,22.266723632812,-19.413940429688
0.0715,-7.4022216796875,23.027465820312,-15.970581054688
0.072,-12.046752929688,23.147583007812,-11.526245117188
0.0725,-15.249877929688,23.307739257812,-8.6434326171875
0.073,-18.933471679688,22.266723632812,-3.9989013671875
0.0735,-21.055541992188,20.865356445312,-0.3953857421875
0.074,-22.777221679688,18.703247070312,3.6485595703125
0.0745,-23.497924804688,14.859497070312,8.1729736328125
0.075,-22.496948242188,10.094848632812,12.096801757812
0.0755,-23.137573242188,7.2520751953125,15.620239257812
0.076,-21.295776367188,2.8878173828125,18.142700195312
0.0765,-19.894409179688,-1.4364013671875,21.025512695312
0.077,-16.651245117188,-5.2801513671875,21.626098632812
0.0775,-12.767456054688,-10.164916992188,22.546997070312
0.078,-8.9237060546875,-13.448120117188,22.026489257812
0.0785,-4.7596435546875,-17.251831054688,21.626098632812
0.079,-0.7156982421875,-19.373901367188,19.824340820312
0.0795,3.4884033203125,-21.976440429688,18.382934570312
0.08,8.1329345703125,-22.657104492188,14.419067382812
0.0805,12.457153320312,-22.577026367188,10.094848632812
0.081,15.820434570312,-23.217651367188,7.5323486328125
0.0815,19.023559570312,-21.776245117188,2.8878173828125
0.082,21.465942382812,-20.294799804688,-1.1160888671875
0.0825,22.426879882812,-17.652221679688,-4.7996826171875
0.083,23.107543945312,-13.768432617188,-9.4442138671875
0.0835,22.266723632812,-9.3641357421875,-13.047729492188
0.084,22.627075195312,-6.1610107421875,-16.651245117188
0.0845,20.625122070312,-1.7967529296875,-19.013549804688
0.085,19.143676757812,2.5675048828125,-21.816284179688
0.0855,15.259887695312,6.8116455078125,-22.136596679688
0.086,11.135864257812,11.456176757812,-22.617065429688
0.0865,7.7725830078125,14.739379882812,-22.577026367188
0.087,3.0880126953125,18.222778320312,-21.415893554688
0.0875,-1.0760498046875,20.464965820312,-19.614135742188
0.088,-5.2801513671875,22.587036132812,-17.692260742188
0.0885,-10.084838867188,23.027465820312,-13.328002929688
0.089,-14.168823242188,22.747192382812,-9.0438232421875
0.0895,-17.612182617188,23.187622070312,-6.1610107421875
0.09,-20.414916992188,21.385864257812,-1.5164794921875
0.0905,-23.017456054688,19.584106445312,2.9678955078125
0.091,-23.057495117188,16.020629882812,6.6114501953125
0.0915,-23.658081054688,12.096801757812,11.215942382812
0.092,-22.777221679688,7.8526611328125,14.659301757812
0.0925,-22.577026367188,4.0889892578125,18.222778320312
0.093,-20.254760742188,-0.5955810546875,20.545043945312
0.0935,-18.292846679688,-4.9998779296875,22.987426757812
0.094,-13.808471679688,-9.3641357421875,22.867309570312
0.0945,-9.5643310546875,-13.728393554688,22.907348632812
0.095,-6.1610107421875,-16.851440429688,22.707153320312
0.0955,-0.9158935546875,-20.214721679688,20.825317382812
0.096,3.4884033203125,-22.456909179688,18.823364257812
0.0965,8.0128173828125,-23.858276367188,15.660278320312
0.097,12.337036132812,-24.058471679688,11.656372070312
0.0975,16.501098632812,-23.497924804688,7.1319580078125
0.098,19.744262695312,-23.377807617188,3.8087158203125
0.0985,22.426879882812,-21.215698242188,-1.0360107421875
0.099,24.789184570312,-18.933471679688,-5.8006591796875
0.0995,23.948364257812,-14.409057617188,-9.6043701171875
0.1,24.388793945312,-10.605346679688,-13.928588867188
0.1005,23.347778320312,-6.4412841796875,-17.091674804688
0.101,22.266723632812,-1.9569091796875,-20.494995117188
0.1015,19.784301757812,2.6075439453125,-22.496948242188
0.102,16.941528320312,7.4122314453125,-24.458862304688
0.1025,12.136840820312,11.656372070312,-23.858276367188
0.103,7.7325439453125,15.860473632812,-23.698120117188
0.1035,4.2091064453125,18.703247070312,-23.017456054688
0.104,-1.3162841796875,21.826293945312,-20.815307617188
0.1045,-5.6004638671875,23.828247070312,-18.573120117188
0.105,-10.525268554688,24.388793945312,-14.288940429688
0.1055,-14.369018554688,24.508911132812,-10.645385742188
0.106,-18.412963867188,23.708129882812,-5.8406982421875
0.1065,-21.295776367188,22.907348632812,-2.1971435546875
0.107,-23.537963867188,20.665161132812,2.4073486328125
0.1075,-25.459838867188,17.822387695312,7.2120361328125
0.108,-24.098510742188,12.697387695312,11.015747070312
0.1085,-24.458862304688,9.0137939453125,15.179809570312
0.109,-23.337768554688,5.0098876953125,18.062622070312
0.1095,-21.776245117188,0.1651611328125,21.385864257812
0.11,-19.093627929688,-4.1590576171875,22.947387695312
0.1105,-15.690307617188,-9.0838623046875,24.388793945312
0.111,-11.085815429688,-12.967651367188,23.708129882812
0.1115,-6.5614013671875,-17.131713867188,23.347778320312
0.112,-2.7176513671875,-19.734252929688,22.066528320312
0.1125,2.4473876953125,-22.697143554688,19.984497070312
0.113,7.0118408203125,-24.538940429688,17.421997070312
0.1135,11.736450195312,-24.218627929688,12.457153320312
0.114,15.420043945312,-24.659057617188,9.3341064453125
0.1145,19.343872070312,-23.658081054688,4.4493408203125
0.115,22.106567382812,-22.496948242188,0.5255126953125
0.1155,24.028442382812,-20.134643554688,-3.8387451171875
0.116,25.549926757812,-16.811401367188,-8.7235107421875
0.1165,24.068481445312,-11.566284179688,-12.567260742188
0.117,24.348754882812,-7.9627685546875,-16.611206054688
0.1175,22.947387695312,-3.8787841796875,-19.213745117188
0.118,21.265747070312,1.1260986328125,-22.456909179688
0.1185,18.222778320312,5.4102783203125,-23.698120117188
0.119,13.978637695312,10.535278320312,-24.619018554688
0.1195,9.8946533203125,14.178833007812,-24.138549804688
0.12,5.0899658203125,18.463012695312,-23.457885742188
0.1205,1.0059814453125,20.705200195312,-21.856323242188
0.121,-3.8387451171875,23.387817382812,-19.894409179688
0.1215,-8.8035888671875,24.989379882812,-16.651245117188
0.122,-13.287963867188,24.148559570312,-11.326049804688
0.1225,-16.891479492188,24.789184570312,-8.4432373046875
0.123,-20.535034179688,23.227661132812,-3.2781982421875
0.1235,-23.217651367188,21.906372070312,0.8057861328125
0.124,-24.619018554688,19.143676757812,5.0499267578125
0.1245,-25.660034179688,15.179809570312,10.094848632812
0.125,-24.298706054688,10.174926757812,13.818481445312
0.1255,-24.458862304688,6.3311767578125,17.862426757812
0.126,-22.536987304688,2.0469970703125,20.224731445312
0.1265,-20.775268554688,-2.9578857421875,23.467895507812
0.127,-17.171752929688,-7.3221435546875,24.188598632812
0.1275,-12.487182617188,-12.447143554688,24.508911132812
0.128,-8.8436279296875,-15.930541992188,24.148559570312
0.1285,-3.3983154296875,-19.974487304688,23.027465820312
0.129,1.0460205078125,-22.336791992188,21.065551757812
0.1295,5.6104736328125,-24.659057617188,18.943481445312
0.13,10.855590820312,-25.740112304688,14.859497070312
0.1305,15.059692382812,-24.659057617188,9.6544189453125
0.131,18.903442382812,-25.259643554688,6.5313720703125
0.1315,22.226684570312,-23.257690429688,1.2061767578125
0.132,25.029418945312,-21.656127929688,-3.2781982421875
0.1325,25.549926757812,-18.212768554688,-7.3221435546875
0.133,26.230590820312,-13.728393554688,-12.567260742188
0.1335,24.869262695312,-8.9237060546875,-16.050659179688
0.134,24.588989257812,-4.5994873046875,-20.134643554688
0.1345,22.066528320312,0.1651611328125,-22.336791992188
0.135,20.104614257812,5.0098876953125,-25.179565429688
0.1355,15.700317382812,9.6143798828125,-25.379760742188
0.136,10.735473632812,14.539184570312,-25.339721679688
0.1365,7.0518798828125,17.902465820312,-25.059448242188
0.137,1.2862548828125,21.746215820312,-23.137573242188
0.1375,-3.3983154296875,24.028442382812,-20.895385742188
0.138,-7.9227294921875,25.750122070312,-18.212768554688
0.1385,-13.127807617188,26.310668945312,-13.608276367188
0.139,-17.091674804688,25.029418945312,-8.4832763671875
0.1395,-20.895385742188,25.229614257812,-4.9197998046875
0.14,-23.698120117188,22.827270507812,0.3253173828125
0.1405,-26.420776367188,20.865356445312,5.0899658203125
0.141,-26.060424804688,16.581176757812,9.0538330078125
0.1415,-26.540893554688,11.976684570312,14.178833007812
0.142,-25.139526367188,7.4122314453125,17.421997070312
0.1425,-24.338745117188,2.6876220703125,21.425903320312
0.143,-21.536010742188,-2.1971435546875,23.507934570312
0.1435,-19.173706054688,-6.9217529296875,25.750122070312
0.144,-14.409057617188,-11.566284179688,25.750122070312
0.1445,-9.2440185546875,-16.170776367188,24.989379882812
0.145,-5.7606201171875,-19.453979492188,24.789184570312
0.1455,0.3653564453125,-22.857299804688,22.266723632812
0.146,5.0899658203125,-25.259643554688,19.984497070312
0.1465,9.8546142578125,-26.140502929688,16.260864257812
0.147,14.539184570312,-26.500854492188,12.056762695312
0.1475,18.463012695312,-25.259643554688,6.9317626953125
0.148,22.106567382812,-25.019409179688,3.0479736328125
0.1485,24.629028320312,-22.456909179688,-2.0770263671875
0.149,27.191528320312,-20.134643554688,-7.0418701171875
0.1495,26.150512695312,-15.089721679688,-11.045776367188
0.15,26.390747070312,-10.645385742188,-15.850463867188
0.1505,25.229614257812,-6.5614013671875,-18.853393554688
0.151,23.668090820312,-1.1961669921875,-22.617065429688
0.1515,20.865356445312,3.5684814453125,-24.538940429688
0.152,17.622192382812,8.2930908203125,-26.260620117188
0.1525,12.897583007812,12.977661132812,-26.020385742188
0.153,7.6925048828125,17.381958007812,-25.139526367188
0.1535,4.1290283203125,20.464965820312,-24.659057617188
0.154,-1.9168701171875,23.668090820312,-21.976440429688
0.1545,-6.6414794921875,26.070434570312,-19.734252929688
0.155,-11.566284179688,26.070434570312,-14.889526367188
0.1555,-15.850463867188,26.510864257812,-11.205932617188
0.156,-19.774291992188,25.229614257812,-6.0809326171875
0.1565,-23.097534179688,24.348754882812,-1.8367919921875
0.157,-25.339721679688,21.706176757812,3.1280517578125
0.1575,-27.501831054688,18.823364257812,8.2130126953125
0.158,-26.020385742188,13.378051757812,12.296997070312
0.1585,-26.140502929688,9.0938720703125,16.741333007812
0.159,-24.979370117188,5.1700439453125,19.544067382812
0.1595,-23.017456054688,-0.5155029296875,23.267700195312
0.16,-20.054565429688,-5.2401123046875,24.829223632812
0.1605,-16.370971679688,-10.244995117188,26.190551757812
0.161,-11.686401367188,-14.529174804688,25.830200195312
0.1615,-6.5614013671875,-18.733276367188,24.829223632812
0.162,-2.5574951171875,-21.455932617188,23.668090820312
0.1625,3.2481689453125,-24.458862304688,21.065551757812
0.163,8.2930908203125,-26.701049804688,18.382934570312
0.1635,13.137817382812,-25.980346679688,12.817504882812
0.164,17.141723632812,-26.540893554688,9.5343017578125
0.1645,21.105590820312,-25.179565429688,4.2891845703125
0.165,24.228637695312,-23.858276367188,-0.1951904296875
0.1655,26.150512695312,-21.015502929688,-4.9998779296875
0.166,27.792114257812,-17.572143554688,-10.204956054688
0.1665,26.110473632812,-12.046752929688,-14.168823242188
0.167,26.070434570312,-7.8426513671875,-18.332885742188
0.1675,24.508911132812,-3.7586669921875,-20.975463867188
0.168,22.546997070312,2.0469970703125,-24.498901367188
0.1685,19.063598632812,6.6915283203125,-25.900268554688
0.169,14.379028320312,12.056762695312,-26.580932617188
0.1695,10.174926757812,15.940551757812,-26.220581054688
0.17,4.8096923828125,20.184692382812,-25.019409179688
0.1705,0.3653564453125,22.707153320312,-23.217651367188
0.171,-4.8397216796875,25.349731445312,-20.775268554688
0.1715,-10.124877929688,27.191528320312,-17.452026367188
0.172,-14.769409179688,25.950317382812,-11.646362304688
0.1725,-18.693237304688,26.590942382812,-8.4832763671875
0.173,-22.296752929688,24.709106445312,-3.0780029296875
0.1735,-25.259643554688,23.107543945312,1.6466064453125
0.174,-26.620971679688,19.864379882812,6.2911376953125
0.1745,-27.621948242188,15.700317382812,11.536254882812
0.175,-26.060424804688,10.535278320312,15.219848632812
0.1755,-25.860229492188,6.1309814453125,19.463989257812
0.176,-23.858276367188,1.8868408203125,21.946411132812
0.1765,-21.776245117188,-3.8387451171875,25.269653320312
0.177,-17.972534179688,-8.5633544921875,26.150512695312
0.1775,-12.807495117188,-13.808471679688,26.190551757812
0.178,-9.0838623046875,-17.171752929688,25.910278320312
