wavelength,x,y,z
0.0,8.258056640625,-7.357177734375,-0.870849609375
0.0005,8.818603515625,-6.356201171875,-2.472412109375
0.001,9.259033203125,-5.155029296875,-4.154052734375
0.0015,8.818603515625,-3.593505859375,-5.275146484375
0.002,8.298095703125,-1.911865234375,-6.476318359375
0.0025,7.417236328125,-0.270263671875,-7.237060546875
0.003,6.656494140625,1.491455078125,-8.117919921875
0.0035,5.375244140625,3.413330078125,-8.838623046875
0.004,3.773681640625,4.974853515625,-8.678466796875
0.0045,2.172119140625,6.176025390625,-8.318115234375
0.005,0.730712890625,7.177001953125,-7.957763671875
0.0055,-0.830810546875,7.977783203125,-7.237060546875
0.006,-2.352294921875,8.658447265625,-6.476318359375
0.0065,-3.993896484375,9.259033203125,-5.475341796875
0.007,-5.034912109375,8.778564453125,-3.993896484375
0.0075,-6.276123046875,8.498291015625,-2.592529296875
0.008,-6.916748046875,7.657470703125,-1.111083984375
0.0085,-7.717529296875,6.816650390625,0.570556640625
0.009,-8.318115234375,5.855712890625,2.172119140625
0.0095,-8.678466796875,4.734619140625,3.613525390625
0.01,-8.318115234375,3.213134765625,4.854736328125
0.0105,-7.837646484375,1.531494140625,6.095947265625
0.011,-7.076904296875,-0.150146484375,6.976806640625
0.0115,-6.316162109375,-1.791748046875,7.817626953125
0.012,-5.034912109375,-3.633544921875,8.378173828125
0.0125,-3.473388671875,-4.954833984375,8.177978515625
0.013,-2.031982421875,-6.276123046875,8.057861328125
0.0135,-0.630615234375,-7.197021484375,7.617431640625
0.014,0.890869140625,-8.077880859375,7.056884765625
0.0145,2.452392578125,-8.918701171875,6.376220703125
0.015,3.853759765625,-9.279052734375,5.335205078125
0.0155,4.974853515625,-8.878662109375,3.933837890625
0.016,6.095947265625,-8.518310546875,2.492431640625
0.0165,6.856689453125,-7.837646484375,1.051025390625
0.017,7.697509765625,-7.156982421875,-0.550537109375
0.0175,8.458251953125,-6.316162109375,-2.192138671875
0.018,8.578369140625,-5.074951171875,-3.513427734375
0.0185,8.298095703125,-3.513427734375,-4.834716796875
0.019,7.777587890625,-1.871826171875,-5.955810546875
0.0195,7.177001953125,-0.270263671875,-7.036865234375
0.02,6.376220703125,1.571533203125,-7.957763671875
0.0205,5.054931640625,3.373291015625,-8.398193359375
0.021,3.413330078125,4.774658203125,-8.157958984375
0.0215,1.971923828125,6.095947265625,-8.077880859375
0.022,0.490478515625,7.056884765625,-7.597412109375
0.0225,-1.111083984375,7.977783203125,-7.036865234375
0.023,-2.792724609375,8.858642578125,-6.236083984375
0.0235,-4.114013671875,8.818603515625,-4.954833984375
0.024,-5.355224609375,8.618408203125,-3.553466796875
0.0245,-6.396240234375,7.977783203125,-1.951904296875
0.025,-7.197021484375,7.217041015625,-0.430419921875
0.0255,-7.997802734375,6.416259765625,1.251220703125
0.026,-8.678466796875,5.415283203125,3.052978515625
0.0265,-8.478271484375,3.893798828125,4.334228515625
0.027,-8.197998046875,2.172119140625,5.815673828125
0.0275,-7.437255859375,0.490478515625,6.736572265625
0.028,-6.676513671875,-1.311279296875,7.737548828125
0.0285,-5.435302734375,-3.273193359375,8.458251953125
0.029,-3.873779296875,-4.994873046875,8.618408203125
0.0295,-2.232177734375,-6.276123046875,8.298095703125
0.03,-0.750732421875,-7.477294921875,7.977783203125
0.0305,0.930908203125,-8.318115234375,7.217041015625
0.031,2.532470703125,-9.118896484375,6.496337890625
0.0315,4.374267578125,-9.839599609375,5.415283203125
0.032,5.575439453125,-9.399169921875,3.853759765625
0.0325,6.776611328125,-9.078857421875,2.292236328125
0.033,7.537353515625,-8.197998046875,0.690673828125
0.0335,8.298095703125,-7.237060546875,-1.111083984375
0.034,9.018798828125,-6.196044921875,-2.872802734375
0.0345,9.339111328125,-4.794677734375,-4.594482421875
0.035,8.818603515625,-2.992919921875,-5.835693359375
0.0355,8.298095703125,-1.271240234375,-7.076904296875
0.036,7.257080078125,0.650634765625,-7.877685546875
0.0365,6.216064453125,2.532470703125,-8.718505859375
0.037,4.774658203125,4.654541015625,-9.399169921875
0.0375,2.852783203125,6.176025390625,-8.958740234375
0.038,1.131103515625,7.417236328125,-8.598388671875
0.0385,-0.630615234375,8.418212890625,-7.917724609375
0.039,-2.552490234375,9.218994140625,-6.756591796875
0.0395,-4.314208984375,9.819580078125,-5.755615234375
0.04,-5.995849609375,10.059814453125,-4.394287109375
0.0405,-7.036865234375,9.218994140625,-2.552490234375
0.041,-8.077880859375,8.578369140625,-0.910888671875
0.0415,-8.678466796875,7.297119140625,1.010986328125
0.042,-9.239013671875,6.095947265625,2.852783203125
0.0425,-9.759521484375,4.814697265625,4.734619140625
0.043,-9.519287109375,3.052978515625,6.256103515625
0.0435,-8.678466796875,1.091064453125,7.417236328125
0.044,-7.837646484375,-0.830810546875,8.418212890625
0.0445,-6.356201171875,-2.952880859375,9.018798828125
0.045,-4.994873046875,-4.874755859375,9.619384765625
0.0455,-3.193115234375,-6.836669921875,9.739501953125
0.046,-1.271240234375,-7.997802734375,8.978759765625
0.0465,0.490478515625,-9.038818359375,8.378173828125
0.047,2.372314453125,-9.759521484375,7.297119140625
0.0475,4.294189453125,-10.320068359375,5.935791015625
0.048,5.895751953125,-10.720458984375,4.814697265625
0.0485,7.257080078125,-10.520263671875,3.253173828125
0.049,8.097900390625,-9.479248046875,1.451416015625
0.0495,8.898681640625,-8.638427734375,-0.310302734375
0.05,9.259033203125,-7.036865234375,-2.192138671875
0.0505,9.659423828125,-5.835693359375,-3.833740234375
0.051,10.059814453125,-4.474365234375,-5.595458984375
0.0515,9.379150390625,-2.552490234375,-6.876708984375
0.052,8.538330078125,-0.750732421875,-7.837646484375
0.0525,7.457275390625,1.171142578125,-8.598388671875
0.053,6.015869140625,3.213134765625,-9.198974609375
0.0535,4.694580078125,5.014892578125,-9.679443359375
0.054,2.852783203125,6.696533203125,-9.519287109375
0.0545,1.010986328125,7.697509765625,-8.678466796875
0.055,-0.630615234375,8.658447265625,-8.117919921875
0.0555,-2.512451171875,9.259033203125,-6.916748046875
0.056,-4.154052734375,9.739501953125,-5.795654296875
0.0565,-5.635498046875,10.059814453125,-4.714599609375
0.057,-6.716552734375,9.419189453125,-3.072998046875
0.0575,-7.597412109375,8.658447265625,-1.431396484375
0.058,-8.278076171875,7.657470703125,0.290283203125
0.0585,-8.678466796875,6.376220703125,2.052001953125
0.059,-9.198974609375,5.375244140625,3.533447265625
0.0595,-9.439208984375,3.973876953125,5.175048828125
0.06,-8.638427734375,2.092041015625,6.296142578125
0.0605,-7.997802734375,0.410400390625,7.417236328125
0.061,-6.836669921875,-1.431396484375,8.017822265625
0.0615,-5.795654296875,-3.153076171875,8.658447265625
0.062,-4.474365234375,-4.834716796875,9.018798828125
0.0625,-2.712646484375,-6.276123046875,8.698486328125
0.063,-1.151123046875,-7.317138671875,8.177978515625
0.0635,0.410400390625,-8.278076171875,7.697509765625
0.064,2.011962890625,-8.838623046875,6.696533203125
0.0645,3.413330078125,-9.519287109375,5.975830078125
0.065,4.854736328125,-9.799560546875,4.894775390625
0.0655,5.895751953125,-9.198974609375,3.293212890625
0.066,6.896728515625,-8.678466796875,1.851806640625
0.0665,7.497314453125,-7.717529296875,0.330322265625
0.067,8.177978515625,-6.916748046875,-1.231201171875
0.0675,8.818603515625,-6.075927734375,-2.712646484375
0.068,8.898681640625,-4.634521484375,-4.194091796875
0.0685,8.338134765625,-3.072998046875,-5.275146484375
0.069,7.857666015625,-1.391357421875,-6.516357421875
0.0695,6.976806640625,0.290283203125,-7.237060546875
0.07,6.216064453125,1.931884765625,-8.157958984375
0.0705,4.934814453125,3.653564453125,-8.518310546875
0.071,3.213134765625,5.014892578125,-8.238037109375
0.0715,1.811767578125,6.216064453125,-8.037841796875
0.072,0.330322265625,7.217041015625,-7.557373046875
0.0725,-1.231201171875,7.937744140625,-6.916748046875
0.073,-2.672607421875,8.738525390625,-6.276123046875
0.0735,-4.033935546875,8.858642578125,-5.114990234375
0.074,-5.155029296875,8.458251953125,-3.593505859375
0.0745,-6.276123046875,8.057861328125,-2.112060546875
0.075,-6.916748046875,7.217041015625,-0.630615234375
0.0755,-7.837646484375,6.576416015625,0.970947265625
0.076,-8.478271484375,5.655517578125,2.532470703125
0.0765,-8.358154296875,4.174072265625,3.933837890625
0.077,-8.037841796875,2.612548828125,5.175048828125
0.0775,-7.437255859375,0.930908203125,6.336181640625
0.078,-6.716552734375,-0.750732421875,7.177001953125
0.0785,-5.795654296875,-2.432373046875,7.977783203125
0.079,-4.394287109375,-4.114013671875,8.218017578125
0.0795,-2.832763671875,-5.435302734375,7.977783203125
0.08,-1.431396484375,-6.676513671875,7.857666015625
0.0805,0.090087890625,-7.597412109375,7.297119140625
0.081,1.571533203125,-8.478271484375,6.736572265625
0.0815,3.052978515625,-9.158935546875,5.935791015625
0.082,4.334228515625,-8.998779296875,4.614501953125
0.0825,5.455322265625,-8.678466796875,3.213134765625
0.083,6.536376953125,-8.197998046875,1.731689453125
0.0835,7.217041015625,-7.397216796875,0.250244140625
0.084,8.137939453125,-6.756591796875,-1.351318359375
0.0845,8.658447265625,-5.715576171875,-2.912841796875
0.085,8.338134765625,-4.114013671875,-4.274169921875
0.0855,8.057861328125,-2.552490234375,-5.515380859375
0.086,7.377197265625,-0.870849609375,-6.556396484375
0.0865,6.696533203125,0.890869140625,-7.557373046875
0.087,5.695556640625,2.612548828125,-8.278076171875
0.0875,4.053955078125,4.294189453125,-8.318115234375
0.088,2.492431640625,5.575439453125,-8.077880859375
0.0885,1.010986328125,6.736572265625,-7.837646484375
0.089,-0.630615234375,7.617431640625,-7.116943359375
0.0895,-2.112060546875,8.458251953125,-6.516357421875
0.09,-3.633544921875,8.978759765625,-5.515380859375
0.0905,-4.874755859375,8.618408203125,-3.993896484375
0.091,-6.035888671875,8.258056640625,-2.552490234375
0.0915,-6.876708984375,7.537353515625,-0.990966796875
0.092,-7.677490234375,6.696533203125,0.690673828125
0.0925,-8.398193359375,5.895751953125,2.252197265625
0.093,-8.678466796875,4.534423828125,3.853759765625
0.0935,-8.197998046875,2.852783203125,5.094970703125
0.094,-7.757568359375,1.131103515625,6.456298828125
0.0945,-6.796630859375,-0.670654296875,7.217041015625
0.095,-5.915771484375,-2.472412109375,8.137939453125
0.0955,-4.514404296875,-4.234130859375,8.498291015625
0.096,-2.872802734375,-5.675537109375,8.258056640625
0.0965,-1.431396484375,-6.876708984375,7.977783203125
0.097,0.210205078125,-7.957763671875,7.497314453125
0.0975,1.931884765625,-8.718505859375,6.616455078125
0.098,3.453369140625,-9.359130859375,5.855712890625
0.0985,4.854736328125,-9.559326171875,4.654541015625
0.099,5.975830078125,-8.998779296875,3.052978515625
0.0995,7.056884765625,-8.478271484375,1.531494140625
0.1,7.697509765625,-7.437255859375,-0.190185546875
0.1005,8.458251953125,-6.636474609375,-1.791748046875
0.101,9.018798828125,-5.635498046875,-3.393310546875
0.1015,8.898681640625,-3.993896484375,-4.914794921875
0.102,8.298095703125,-2.312255859375,-6.035888671875
0.1025,7.697509765625,-0.510498046875,-7.197021484375
0.103,6.496337890625,1.451416015625,-7.997802734375
0.1035,5.495361328125,3.253173828125,-8.758544921875
0.104,3.893798828125,4.974853515625,-8.878662109375
0.1045,2.172119140625,6.256103515625,-8.478271484375
0.105,0.650634765625,7.377197265625,-8.037841796875
0.1055,-1.231201171875,8.298095703125,-7.237060546875
0.106,-2.992919921875,9.098876953125,-6.276123046875
0.1065,-4.514404296875,9.499267578125,-5.195068359375
0.107,-5.795654296875,9.259033203125,-3.753662109375
0.1075,-6.796630859375,8.618408203125,-2.112060546875
0.108,-7.757568359375,7.857666015625,-0.470458984375
0.1085,-8.318115234375,6.496337890625,1.531494140625
0.109,-8.958740234375,5.575439453125,3.133056640625
0.1095,-9.279052734375,4.334228515625,4.734619140625
0.11,-8.718505859375,2.412353515625,6.095947265625
0.1105,-8.037841796875,0.650634765625,7.177001953125
0.111,-7.036865234375,-1.271240234375,8.057861328125
0.1115,-5.675537109375,-3.353271484375,8.778564453125
0.112,-4.314208984375,-5.034912109375,9.098876953125
0.1125,-2.552490234375,-6.636474609375,8.898681640625
0.113,-0.910888671875,-7.717529296875,8.298095703125
0.1135,0.730712890625,-8.718505859375,7.737548828125
0.114,2.692626953125,-9.359130859375,6.536376953125
0.1145,4.334228515625,-9.959716796875,5.575439453125
0.115,5.735595703125,-10.039794921875,4.334228515625
0.1155,6.896728515625,-9.559326171875,2.732666015625
0.116,7.697509765625,-8.718505859375,1.131103515625
0.1165,8.418212890625,-7.717529296875,-0.630615234375
0.117,8.978759765625,-6.396240234375,-2.552490234375
0.1175,9.419189453125,-5.435302734375,-3.993896484375
0.118,9.459228515625,-3.913818359375,-5.515380859375
0.1185,8.618408203125,-1.991943359375,-6.676513671875
0.119,7.937744140625,-0.310302734375,-7.677490234375
0.1195,6.656494140625,1.771728515625,-8.398193359375
0.12,5.375244140625,3.813720703125,-9.118896484375
0.1205,3.853759765625,5.375244140625,-9.158935546875
0.121,2.052001953125,6.736572265625,-8.878662109375
0.1215,0.370361328125,7.657470703125,-8.157958984375
0.122,-1.231201171875,8.658447265625,-7.517333984375
0.1225,-3.193115234375,9.339111328125,-6.276123046875
0.123,-4.674560546875,9.739501953125,-5.235107421875
0.1235,-5.995849609375,9.619384765625,-3.873779296875
0.124,-6.996826171875,8.938720703125,-2.232177734375
0.1245,-7.837646484375,8.057861328125,-0.630615234375
0.125,-8.398193359375,6.896728515625,1.251220703125
0.1255,-8.958740234375,5.655517578125,3.052978515625
0.126,-9.279052734375,4.614501953125,4.414306640625
0.1265,-9.078857421875,2.892822265625,5.895751953125
0.127,-8.197998046875,1.051025390625,6.936767578125
0.1275,-7.437255859375,-0.750732421875,7.937744140625
0.128,-5.995849609375,-2.832763671875,8.538330078125
0.1285,-4.834716796875,-4.634521484375,9.098876953125
0.129,-3.153076171875,-6.115966796875,8.938720703125
0.1295,-1.551513671875,-7.437255859375,8.418212890625
0.13,0.130126953125,-8.157958984375,7.857666015625
0.1305,1.771728515625,-8.998779296875,7.056884765625
0.131,3.613525390625,-9.599365234375,5.895751953125
0.1315,4.894775390625,-9.879638671875,4.974853515625
0.132,6.135986328125,-9.639404296875,3.533447265625
0.1325,7.016845703125,-8.878662109375,1.971923828125
0.133,7.857666015625,-8.157958984375,0.410400390625
0.1335,8.338134765625,-6.876708984375,-1.431396484375
0.134,8.978759765625,-5.955810546875,-2.992919921875
0.1345,9.178955078125,-4.834716796875,-4.354248046875
0.135,8.818603515625,-3.113037109375,-5.755615234375
0.1355,8.017822265625,-1.431396484375,-6.676513671875
0.136,7.297119140625,0.410400390625,-7.717529296875
0.1365,6.055908203125,2.332275390625,-8.478271484375
0.137,4.934814453125,3.973876953125,-8.918701171875
0.1375,3.333251953125,5.575439453125,-8.718505859375
0.138,1.611572265625,6.656494140625,-8.318115234375
0.1385,0.130126953125,7.657470703125,-7.797607421875
0.139,-1.671630859375,8.418212890625,-6.876708984375
0.1395,-3.313232421875,9.098876953125,-5.995849609375
0.14,-4.554443359375,9.259033203125,-4.954833984375
0.1405,-5.795654296875,8.938720703125,-3.473388671875
0.141,-6.676513671875,8.258056640625,-1.951904296875
0.1415,-7.557373046875,7.537353515625,-0.310302734375
0.142,-8.117919921875,6.336181640625,1.491455078125
0.1425,-8.798583984375,5.535400390625,3.012939453125
0.143,-8.918701171875,4.214111328125,4.414306640625
0.1435,-8.318115234375,2.412353515625,5.735595703125
0.144,-7.717529296875,0.690673828125,6.776611328125
0.1445,-6.676513671875,-1.111083984375,7.697509765625
0.145,-5.635498046875,-3.072998046875,8.378173828125
0.1455,-4.314208984375,-4.594482421875,8.618408203125
0.146,-2.632568359375,-6.075927734375,8.458251953125
0.1465,-1.231201171875,-7.076904296875,7.977783203125
0.147,0.410400390625,-8.077880859375,7.537353515625
0.1475,2.172119140625,-8.798583984375,6.536376953125
0.148,3.613525390625,-9.479248046875,5.775634765625
0.1485,4.854736328125,-9.479248046875,4.614501953125
0.149,6.055908203125,-9.038818359375,3.052978515625
0.1495,6.896728515625,-8.398193359375,1.571533203125
0.15,7.697509765625,-7.557373046875,-0.150146484375
0.1505,8.338134765625,-6.556396484375,-1.791748046875
0.151,8.938720703125,-5.715576171875,-3.193115234375
0.1515,8.858642578125,-4.194091796875,-4.754638671875
0.152,8.218017578125,-2.432373046875,-5.795654296875
0.1525,7.577392578125,-0.790771484375,-6.916748046875
0.153,6.576416015625,1.131103515625,-7.757568359375
0.1535,5.615478515625,2.972900390625,-8.638427734375
0.154,4.134033203125,4.494384765625,-8.638427734375
0.1545,2.452392578125,5.975830078125,-8.398193359375
0.155,0.970947265625,6.976806640625,-7.957763671875
0.1555,-0.710693359375,7.977783203125,-7.397216796875
0.156,-2.512451171875,8.738525390625,-6.396240234375
0.1565,-3.913818359375,9.178955078125,-5.475341796875
0.157,-5.155029296875,9.018798828125,-4.114013671875
0.1575,-6.276123046875,8.498291015625,-2.552490234375
0.158,-7.197021484375,7.857666015625,-0.990966796875
0.1585,-7.837646484375,6.736572265625,0.810791015625
0.159,-8.638427734375,5.815673828125,2.532470703125
0.1595,-8.878662109375,4.814697265625,3.853759765625
0.16,-8.678466796875,3.052978515625,5.415283203125
0.1605,-7.877685546875,1.131103515625,6.376220703125
0.161,-7.237060546875,-0.590576171875,7.537353515625
0.1615,-5.915771484375,-2.592529296875,8.258056640625
0.162,-4.714599609375,-4.314208984375,8.818603515625
0.1625,-3.072998046875,-5.755615234375,8.578369140625
0.163,-1.471435546875,-7.076904296875,8.298095703125
0.1635,0.090087890625,-7.997802734375,7.697509765625
0.164,1.851806640625,-8.838623046875,6.896728515625
0.1645,3.653564453125,-9.599365234375,5.895751953125
0.165,4.894775390625,-9.679443359375,4.814697265625
0.1655,6.256103515625,-9.479248046875,3.253173828125
0.166,7.056884765625,-8.678466796875,1.731689453125
0.1665,7.937744140625,-7.917724609375,0.090087890625
0.167,8.458251953125,-6.676513671875,-1.791748046875
0.1675,9.178955078125,-5.755615234375,-3.393310546875
0.168,9.138916015625,-4.434326171875,-4.754638671875
0.1685,8.658447265625,-2.552490234375,-6.115966796875
0.169,7.897705078125,-0.910888671875,-7.076904296875
0.1695,7.016845703125,1.010986328125,-8.037841796875
0.17,5.655517578125,3.213134765625,-8.838623046875
0.1705,4.214111328125,4.854736328125,-8.998779296875
0.171,2.412353515625,6.336181640625,-8.678466796875
0.1715,0.850830078125,7.377197265625,-8.197998046875
0.172,-0.790771484375,8.298095703125,-7.557373046875
0.1725,-2.712646484375,9.058837890625,-6.476318359375
0.173,-4.434326171875,9.659423828125,-5.435302734375
0.1735,-5.635498046875,9.419189453125,-4.033935546875
0.174,-6.876708984375,9.018798828125,-2.472412109375
0.1745,-7.557373046875,8.057861328125,-0.870849609375
0.175,-8.318115234375,7.096923828125,0.930908203125
0.1755,-8.918701171875,5.735595703125,2.852783203125
0.176,-9.279052734375,4.654541015625,4.334228515625
0.1765,-8.998779296875,3.052978515625,5.735595703125
0.177,-8.278076171875,1.131103515625,6.896728515625
0.1775,-7.437255859375,-0.630615234375,7.817626953125
0.178,-6.196044921875,-2.592529296875,8.578369140625
0.1785,-4.754638671875,-4.714599609375,9.178955078125
0.179,-3.072998046875,-6.115966796875,8.898681640625
0.1795,-1.351318359375,-7.517333984375,8.578369140625
0.18,0.250244140625,-8.278076171875,7.897705078125
0.1805,1.891845703125,-9.118896484375,7.136962890625
0.181,3.813720703125,-9.799560546875,5.935791015625
0.1815,5.335205078125,-10.159912109375,4.814697265625
0.182,6.456298828125,-9.679443359375,3.253173828125
0.1825,7.497314453125,-9.078857421875,1.731689453125
0.183,8.137939453125,-8.157958984375,0.130126953125
0.1835,8.698486328125,-7.036865234375,-1.671630859375
0.184,9.339111328125,-5.755615234375,-3.593505859375
0.1845,9.379150390625,-4.514404296875,-4.874755859375
0.185,9.098876953125,-2.832763671875,-6.356201171875
0.1855,8.137939453125,-1.031005859375,-7.197021484375
0.186,7.377197265625,0.810791015625,-8.157958984375
0.1865,5.975830078125,2.892822265625,-8.838623046875
0.187,4.614501953125,4.814697265625,-9.359130859375
0.1875,2.732666015625,6.176025390625,-8.918701171875
0.188,1.131103515625,7.537353515625,-8.598388671875
