wavelength,x,y,z
0.0,-2.5224609375,-2.8828125,4.724609375
0.0005,-1.9619140625,-3.36328125,4.8046875
0.001,-0.9208984375,-4.64453125,4.8046875
0.0015,0.1201171875,-4.884765625,4.0439453125
0.002,0.9208984375,-5.28515625,3.7236328125
0.0025,2.001953125,-5.525390625,2.8828125
0.003,2.9228515625,-5.60546875,2.0419921875
0.0035,3.68359375,-5.525390625,1.28125
0.004,4.5244140625,-5.525390625,0.3603515625
0.0045,4.6044921875,-4.5244140625,-0.640625
0.005,4.96484375,-4.3642578125,-1.1611328125
0.0055,4.96484375,-3.203125,-2.322265625
0.006,4.9248046875,-2.6025390625,-2.8427734375
0.0065,4.8447265625,-1.5615234375,-3.84375
0.007,4.4443359375,-0.6005859375,-4.3642578125
0.0075,3.5234375,0.6005859375,-4.5244140625
0.008,3.0830078125,1.4013671875,-4.884765625
0.0085,1.9619140625,2.5625,-4.96484375
0.009,1.361328125,3.123046875,-4.8447265625
0.0095,0.240234375,4.1640625,-4.8046875
0.01,-0.80078125,4.4443359375,-3.923828125
0.0105,-1.521484375,4.7646484375,-3.603515625
0.011,-2.7626953125,4.96484375,-2.6025390625
0.0115,-3.5634765625,5.0048828125,-1.8818359375
0.012,-4.244140625,4.8447265625,-1.0009765625
0.0125,-4.96484375,4.64453125,-0.2001953125
0.013,-4.96484375,3.7236328125,0.7607421875
0.0135,-5.2451171875,3.4833984375,1.28125
0.014,-5.205078125,2.2421875,2.482421875
0.0145,-5.125,1.8017578125,2.8427734375
0.015,-5.0849609375,0.7607421875,3.763671875
0.0155,-4.4443359375,-0.2001953125,4.083984375
0.016,-3.763671875,-1.201171875,4.3642578125
0.0165,-3.1630859375,-2.1220703125,4.484375
0.017,-2.162109375,-3.1630859375,4.6044921875
0.0175,-1.6015625,-3.763671875,4.4443359375
0.018,-0.6005859375,-4.5244140625,4.404296875
0.0185,0.400390625,-4.6845703125,3.603515625
0.019,1.041015625,-5.125,3.443359375
0.0195,2.322265625,-5.28515625,2.2822265625
0.02,2.962890625,-5.365234375,1.8017578125
0.0205,3.6435546875,-5.205078125,0.9609375
0.021,4.2041015625,-4.9248046875,0.1201171875
0.0215,4.2841796875,-4.1640625,-0.6806640625
0.022,4.564453125,-3.84375,-1.28125
0.0225,4.6044921875,-2.7626953125,-2.40234375
0.023,4.5244140625,-2.2822265625,-2.7626953125
0.0235,4.484375,-1.28125,-3.68359375
0.024,3.6435546875,-0.2001953125,-3.8837890625
0.0245,3.123046875,0.6005859375,-4.32421875
0.025,2.40234375,1.5615234375,-4.484375
0.0255,1.5615234375,2.482421875,-4.5244140625
0.026,0.9609375,3.04296875,-4.3642578125
0.0265,0.0400390625,3.84375,-4.2041015625
0.027,-0.9208984375,3.9638671875,-3.443359375
0.0275,-1.521484375,4.404296875,-3.2431640625
0.028,-2.7626953125,4.484375,-2.1220703125
0.0285,-3.2431640625,4.5244140625,-1.681640625
0.029,-3.9638671875,4.32421875,-0.80078125
0.0295,-4.2841796875,3.923828125,-0.080078125
0.03,-4.4443359375,3.3232421875,0.640625
0.0305,-4.564453125,2.8427734375,1.28125
0.031,-4.6845703125,2.08203125,2.162109375
0.0315,-4.5244140625,1.521484375,2.482421875
0.032,-4.5244140625,0.720703125,3.283203125
0.0325,-3.603515625,-0.3203125,3.4033203125
0.033,-3.5234375,-1.041015625,3.8837890625
0.0335,-2.482421875,-1.9619140625,3.84375
0.034,-2.2021484375,-2.642578125,4.2041015625
0.0345,-1.361328125,-3.2431640625,3.9638671875
0.035,-0.640625,-3.84375,3.84375
0.0355,0.16015625,-4.083984375,3.2431640625
0.036,0.880859375,-4.564453125,3.04296875
0.0365,1.9619140625,-4.724609375,2.1220703125
0.037,2.4423828125,-4.8447265625,1.76171875
0.0375,3.1630859375,-4.724609375,0.9609375
0.038,3.4033203125,-4.244140625,0.2802734375
0.0385,3.8037109375,-4.00390625,-0.3603515625
0.039,3.84375,-3.3232421875,-1.12109375
0.0395,4.1240234375,-2.8427734375,-1.8818359375
0.04,3.9638671875,-2.1220703125,-2.3623046875
0.0405,3.923828125,-1.4013671875,-3.0830078125
0.041,3.04296875,-0.3203125,-3.283203125
0.0415,3.0029296875,0.2802734375,-3.84375
0.042,2.0419921875,1.4013671875,-3.84375
0.0425,1.76171875,1.9619140625,-4.1640625
0.043,0.8408203125,2.642578125,-3.8837890625
0.0435,0.1201171875,3.123046875,-3.6435546875
0.044,-0.640625,3.4033203125,-3.203125
0.0445,-1.361328125,3.763671875,-2.7626953125
0.045,-2.322265625,3.9638671875,-2.08203125
0.0455,-2.72265625,3.923828125,-1.6015625
0.046,-3.36328125,3.84375,-0.9609375
0.0465,-3.4833984375,3.2431640625,-0.2802734375
0.047,-3.84375,3.1630859375,0.240234375
0.0475,-3.8837890625,2.40234375,1.0009765625
0.048,-4.1640625,2.162109375,1.5615234375
0.0485,-4.00390625,1.3212890625,2.0419921875
0.049,-3.84375,0.720703125,2.5224609375
0.0495,-3.203125,-0.2802734375,2.8427734375
0.05,-3.1630859375,-0.720703125,3.3232421875
0.0505,-2.4423828125,-1.681640625,3.5234375
0.051,-2.2021484375,-2.1220703125,3.68359375
0.0515,-1.4013671875,-2.8427734375,3.5634765625
0.052,-0.80078125,-3.203125,3.283203125
0.0525,-0.1201171875,-3.68359375,3.1630859375
0.053,0.7607421875,-3.923828125,2.5625
0.0535,1.521484375,-4.3642578125,2.2421875
0.054,1.9619140625,-4.244140625,1.6416015625
0.0545,2.5625,-4.32421875,1.1611328125
0.055,2.802734375,-3.8037109375,0.4404296875
0.0555,3.2431640625,-3.8037109375,0.0
0.056,3.443359375,-3.0830078125,-0.9208984375
0.0565,3.68359375,-2.8828125,-1.361328125
0.057,3.5234375,-2.0419921875,-2.1220703125
0.0575,3.2431640625,-1.361328125,-2.5224609375
0.058,2.8828125,-0.3603515625,-3.0029296875
0.0585,2.5625,0.2802734375,-3.283203125
0.059,2.08203125,1.1611328125,-3.68359375
0.0595,1.5615234375,1.6416015625,-3.68359375
0.06,0.9208984375,2.3623046875,-3.68359375
0.0605,0.16015625,2.6025390625,-3.203125
0.061,-0.48046875,3.1630859375,-3.123046875
0.0615,-1.44140625,3.4033203125,-2.40234375
0.062,-2.0419921875,3.763671875,-2.1220703125
0.0625,-2.5625,3.5234375,-1.4013671875
0.063,-2.9228515625,3.4833984375,-1.0009765625
0.0635,-3.203125,3.04296875,-0.3203125
0.064,-3.4833984375,2.8427734375,0.16015625
0.0645,-3.7236328125,2.2421875,0.9609375
0.065,-3.8037109375,1.921875,1.3212890625
0.0655,-3.8037109375,1.201171875,2.001953125
0.066,-3.3232421875,0.48046875,2.322265625
0.0665,-3.203125,-0.2001953125,2.8427734375
0.067,-2.642578125,-1.0009765625,3.0830078125
0.0675,-2.4423828125,-1.6416015625,3.4833984375
0.068,-1.8017578125,-2.1220703125,3.3232421875
0.0685,-1.3212890625,-2.72265625,3.4033203125
0.069,-0.560546875,-3.0830078125,3.0029296875
0.0695,0.080078125,-3.603515625,2.9228515625
0.07,1.0009765625,-3.8837890625,2.2421875
0.0705,1.521484375,-4.1640625,2.0419921875
0.071,2.1220703125,-4.083984375,1.361328125
0.0715,2.40234375,-3.8837890625,0.9208984375
0.072,2.8427734375,-3.7236328125,0.2802734375
0.0725,3.04296875,-3.36328125,-0.3603515625
0.073,3.4833984375,-3.04296875,-1.12109375
0.0735,3.36328125,-2.40234375,-1.6015625
0.074,3.4033203125,-1.681640625,-2.2421875
0.0745,2.802734375,-0.720703125,-2.5625
0.075,2.802734375,-0.16015625,-3.1630859375
0.0755,2.08203125,0.80078125,-3.36328125
0.076,1.921875,1.361328125,-3.7236328125
0.0765,1.0810546875,1.9619140625,-3.4833984375
0.077,0.48046875,2.5224609375,-3.4033203125
0.0775,-0.2802734375,2.8828125,-3.04296875
0.078,-1.0009765625,3.3232421875,-2.72265625
0.0785,-1.9619140625,3.6435546875,-2.1220703125
0.079,-2.3623046875,3.5634765625,-1.6416015625
0.0795,-2.962890625,3.5234375,-1.041015625
0.08,-3.123046875,3.04296875,-0.400390625
0.0805,-3.5234375,2.9228515625,0.1201171875
0.081,-3.68359375,2.2421875,0.8408203125
0.0815,-3.923828125,1.9619140625,1.4013671875
0.082,-3.6435546875,1.2412109375,1.921875
0.0825,-3.603515625,0.6005859375,2.482421875
0.083,-2.962890625,-0.3203125,2.72265625
0.0835,-2.8828125,-0.880859375,3.1630859375
0.084,-2.2021484375,-1.8017578125,3.443359375
0.0845,-1.841796875,-2.2822265625,3.4833984375
0.085,-1.1611328125,-2.8828125,3.36328125
0.0855,-0.5205078125,-3.203125,3.123046875
0.086,0.2001953125,-3.68359375,2.8427734375
0.0865,1.0810546875,-4.00390625,2.2822265625
0.087,1.921875,-4.3642578125,1.841796875
0.0875,2.2822265625,-4.0439453125,1.201171875
0.088,2.8427734375,-4.1240234375,0.720703125
0.0885,3.0029296875,-3.603515625,0.0
0.089,3.36328125,-3.4833984375,-0.5205078125
0.0895,3.5634765625,-2.72265625,-1.44140625
0.09,3.7236328125,-2.2822265625,-1.9619140625
0.0905,3.36328125,-1.3212890625,-2.5625
0.091,3.123046875,-0.640625,-3.0029296875
0.0915,2.5224609375,0.2802734375,-3.283203125
0.092,2.2421875,1.0009765625,-3.6435546875
0.0925,1.5615234375,1.9619140625,-3.923828125
0.093,0.880859375,2.40234375,-3.68359375
0.0935,0.2001953125,3.04296875,-3.603515625
0.094,-0.6005859375,3.2431640625,-3.0830078125
0.0945,-1.3212890625,3.68359375,-2.72265625
0.095,-2.40234375,3.8837890625,-1.9619140625
0.0955,-3.1630859375,4.083984375,-1.361328125
0.096,-3.4833984375,3.5634765625,-0.6005859375
0.0965,-3.8837890625,3.4833984375,-0.1201171875
0.097,-3.923828125,2.72265625,0.6806640625
0.0975,-4.1640625,2.40234375,1.201171875
0.098,-4.3642578125,1.6416015625,2.2421875
0.0985,-4.1640625,1.0009765625,2.6025390625
0.099,-3.8037109375,0.080078125,3.1630859375
0.0995,-3.283203125,-0.6806640625,3.443359375
0.1,-2.72265625,-1.4814453125,3.603515625
0.1005,-2.2021484375,-2.2822265625,3.84375
0.101,-1.4814453125,-3.203125,4.00390625
0.1015,-0.640625,-3.5234375,3.5234375
0.102,-0.16015625,-4.0439453125,3.5234375
0.1025,0.8408203125,-4.2041015625,2.72265625
0.103,1.5615234375,-4.5244140625,2.40234375
0.1035,2.642578125,-4.7646484375,1.521484375
0.104,3.203125,-4.6845703125,0.880859375
0.1045,3.5234375,-4.244140625,0.1201171875
0.105,3.84375,-4.00390625,-0.48046875
0.1055,3.9638671875,-3.283203125,-1.3212890625
0.106,4.083984375,-2.7626953125,-1.8818359375
0.1065,4.32421875,-1.9619140625,-2.9228515625
0.107,3.763671875,-1.041015625,-3.2431640625
0.1075,3.4833984375,-0.16015625,-3.8037109375
0.108,2.72265625,0.7607421875,-3.9638671875
0.1085,2.2021484375,1.5615234375,-4.1640625
0.109,1.4013671875,2.482421875,-4.32421875
0.1095,0.640625,3.36328125,-4.404296875
0.11,-0.3203125,3.6435546875,-3.68359375
0.1105,-1.0009765625,4.1240234375,-3.603515625
0.111,-2.2021484375,4.32421875,-2.5625
0.1115,-2.802734375,4.484375,-2.08203125
0.112,-3.8837890625,4.6044921875,-1.1611328125
0.1125,-4.32421875,4.2041015625,-0.3603515625
0.113,-4.5244140625,3.6435546875,0.400390625
0.1135,-4.8447265625,3.1630859375,1.12109375
0.114,-4.8447265625,2.2822265625,2.0419921875
0.1145,-4.8046875,1.681640625,2.6025390625
0.115,-4.96484375,0.880859375,3.5634765625
0.1155,-4.1240234375,-0.2802734375,3.8037109375
0.116,-3.84375,-1.0009765625,4.2041015625
0.1165,-2.8828125,-2.08203125,4.32421875
0.117,-2.2421875,-2.8828125,4.484375
0.1175,-1.361328125,-3.7236328125,4.404296875
0.118,-0.48046875,-4.484375,4.32421875
0.1185,0.48046875,-4.64453125,3.5234375
0.119,1.12109375,-5.125,3.3232421875
0.1195,2.4423828125,-5.205078125,2.1220703125
0.12,3.0029296875,-5.205078125,1.6015625
0.1205,3.9638671875,-5.3251953125,0.6806640625
0.121,4.244140625,-4.7646484375,-0.16015625
0.1215,4.484375,-4.244140625,-0.880859375
0.122,4.724609375,-3.603515625,-1.681640625
0.1225,4.724609375,-2.642578125,-2.6025390625
0.123,4.564453125,-1.9619140625,-3.1630859375
0.1235,4.64453125,-1.0810546875,-4.1240234375
0.124,3.603515625,0.16015625,-4.2041015625
0.1245,3.3232421875,0.9208984375,-4.64453125
0.125,2.2021484375,2.162109375,-4.7646484375
0.1255,1.521484375,2.9228515625,-4.8447265625
0.126,0.6005859375,3.763671875,-4.64453125
0.1265,-0.400390625,4.484375,-4.404296875
0.127,-1.361328125,4.5244140625,-3.5634765625
0.1275,-2.2021484375,5.0048828125,-3.203125
0.128,-3.5634765625,5.0849609375,-1.921875
0.1285,-4.00390625,4.884765625,-1.3212890625
0.129,-4.9248046875,4.8046875,-0.3603515625
0.1295,-5.125,4.083984375,0.560546875
0.13,-5.28515625,3.5234375,1.28125
0.1305,-5.4453125,2.72265625,2.2021484375
0.131,-5.4052734375,1.76171875,3.1630859375
0.1315,-5.044921875,0.9609375,3.5634765625
0.132,-5.0048828125,0.0,4.4443359375
0.1325,-3.8037109375,-1.2412109375,4.484375
0.133,-3.5634765625,-1.921875,4.8046875
0.1335,-2.2822265625,-3.2431640625,4.8447265625
0.134,-1.6015625,-3.8837890625,4.8046875
0.1345,-0.6005859375,-4.6044921875,4.484375
0.135,0.3603515625,-5.1650390625,4.1240234375
0.1355,1.2412109375,-5.205078125,3.3232421875
0.136,2.08203125,-5.6455078125,2.8427734375
0.1365,3.443359375,-5.765625,1.5615234375
0.137,3.84375,-5.4453125,0.9609375
0.1375,4.64453125,-5.3251953125,0.0400390625
0.138,4.7646484375,-4.484375,-0.880859375
0.1385,4.9248046875,-4.00390625,-1.4814453125
0.139,4.96484375,-3.04296875,-2.5224609375
0.1395,5.0048828125,-2.2421875,-3.283203125
0.14,4.5244140625,-1.28125,-3.763671875
0.1405,4.4443359375,-0.3203125,-4.564453125
0.141,3.1630859375,0.9208984375,-4.5244140625
0.1415,2.962890625,1.5615234375,-4.96484375
0.142,1.6015625,3.0029296875,-4.96484375
0.1425,1.041015625,3.5234375,-4.9248046875
0.143,-0.080078125,4.2041015625,-4.5244140625
0.1435,-1.041015625,4.7646484375,-4.0439453125
0.144,-1.921875,4.8046875,-3.2431640625
0.1445,-2.8427734375,5.0849609375,-2.6826171875
0.145,-4.1240234375,5.205078125,-1.521484375
0.1455,-4.484375,4.7646484375,-0.80078125
0.146,-5.1650390625,4.6044921875,0.16015625
0.1465,-5.205078125,3.68359375,1.0810546875
0.147,-5.365234375,3.203125,1.6416015625
0.1475,-5.365234375,2.1220703125,2.72265625
0.148,-5.4052734375,1.4013671875,3.4833984375
0.1485,-4.8046875,0.4404296875,3.84375
0.149,-4.5244140625,-0.5205078125,4.484375
0.1495,-3.36328125,-1.681640625,4.484375
0.15,-3.123046875,-2.2822265625,4.7646484375
0.1505,-1.8017578125,-3.603515625,4.7646484375
0.151,-1.2412109375,-4.0439453125,4.564453125
0.1515,-0.16015625,-4.6845703125,4.1640625
0.152,0.6806640625,-5.044921875,3.68359375
0.1525,1.521484375,-5.205078125,3.04296875
0.153,2.482421875,-5.4453125,2.2822265625
0.1535,3.603515625,-5.6455078125,1.3212890625
0.154,3.84375,-5.044921875,0.6005859375
0.1545,4.5244140625,-4.9248046875,-0.2001953125
0.155,4.484375,-4.00390625,-1.041015625
0.1555,4.724609375,-3.68359375,-1.6015625
0.156,4.7646484375,-2.5625,-2.72265625
0.1565,4.7646484375,-1.9619140625,-3.283203125
0.157,4.1640625,-0.9208984375,-3.8037109375
0.1575,3.84375,0.0,-4.2841796875
0.158,2.8427734375,1.12109375,-4.3642578125
0.1585,2.5224609375,1.76171875,-4.64453125
0.159,1.361328125,3.04296875,-4.7646484375
0.1595,0.6806640625,3.36328125,-4.4443359375
0.16,-0.3203125,4.083984375,-4.1240234375
0.1605,-1.201171875,4.244140625,-3.5634765625
0.161,-1.9619140625,4.5244140625,-3.04296875
0.1615,-2.962890625,4.64453125,-2.162109375
0.162,-3.9638671875,4.884765625,-1.3212890625
0.1625,-4.2041015625,4.2041015625,-0.5205078125
0.163,-4.8046875,4.1240234375,0.240234375
0.1635,-4.6845703125,3.1630859375,1.0810546875
0.164,-4.884765625,2.8427734375,1.5615234375
0.1645,-4.96484375,1.76171875,2.6826171875
0.165,-4.8447265625,1.28125,3.04296875
0.1655,-4.32421875,0.2001953125,3.603515625
0.166,-3.8837890625,-0.640625,3.923828125
0.1665,-3.0830078125,-1.6015625,4.083984375
0.167,-2.6025390625,-2.2822265625,4.244140625
0.1675,-1.76171875,-3.3232421875,4.404296875
0.168,-1.0009765625,-3.5634765625,3.923828125
0.1685,-0.2802734375,-4.32421875,3.84375
0.169,0.6005859375,-4.404296875,3.123046875
0.1695,1.28125,-4.8046875,2.802734375
0.17,2.3623046875,-4.884765625,1.921875
0.1705,3.04296875,-5.0048828125,1.361328125
0.171,3.4033203125,-4.484375,0.5205078125
0.1715,3.8037109375,-4.3642578125,0.0
0.172,3.8837890625,-3.603515625,-0.80078125
0.1725,4.083984375,-3.283203125,-1.28125
0.173,4.2841796875,-2.482421875,-2.322265625
0.1735,4.00390625,-1.921875,-2.6025390625
0.174,3.763671875,-0.9208984375,-3.36328125
0.1745,3.123046875,0.0,-3.5634765625
0.175,2.72265625,0.80078125,-3.923828125
0.1755,2.0419921875,1.6015625,-4.083984375
0.176,1.44140625,2.482421875,-4.3642578125
0.1765,0.6005859375,2.802734375,-3.84375
0.177,0.0,3.443359375,-3.84375
0.1775,-0.9609375,3.5634765625,-3.0830078125
0.178,-1.6015625,4.0439453125,-2.8427734375
0.1785,-2.72265625,4.2041015625,-1.921875
0.179,-3.203125,4.1640625,-1.44140625
0.1795,-3.68359375,3.8037109375,-0.6005859375
0.18,-3.923828125,3.4833984375,0.0
0.1805,-4.083984375,2.8828125,0.6806640625
0.181,-4.2041015625,2.4423828125,1.28125
0.1815,-4.484375,1.841796875,2.162109375
0.182,-4.00390625,1.12109375,2.40234375
0.1825,-3.8837890625,0.2802734375,3.0830078125
0.183,-3.203125,-0.640625,3.203125
0.1835,-3.0029296875,-1.2412109375,3.6435546875
0.184,-2.2421875,-2.1220703125,3.7236328125
0.1845,-1.8017578125,-2.72265625,3.84375
0.185,-1.0009765625,-3.1630859375,3.4033203125
0.1855,-0.48046875,-3.6435546875,3.36328125
0.186,0.3603515625,-3.84375,2.802734375
0.1865,1.0009765625,-4.2041015625,2.5224609375
0.187,1.9619140625,-4.4443359375,1.8818359375
0.1875,2.2421875,-4.244140625,1.4013671875
0.188,2.8427734375,-4.1640625,0.7607421875
0.1885,3.0029296875,-3.763671875,0.240234375
0.189,3.36328125,-3.5634765625,-0.400390625
0.1895,3.4833984375,-2.9228515625,-1.0810546875
0.19,3.8037109375,-2.642578125,-1.7216796875
0.1905,3.3232421875,-1.7216796875,-2.1220703125
0.191,3.4033203125,-1.1611328125,-2.7626953125
0.1915,2.642578125,-0.1201171875,-3.04296875
0.192,2.642578125,0.4404296875,-3.5634765625
0.1925,1.921875,1.4013671875,-3.8037109375
0.193,1.521484375,1.841796875,-3.8037109375
0.1935,0.640625,2.4423828125,-3.603515625
0.194,0.0400390625,2.8828125,-3.36328125
0.1945,-0.7607421875,3.283203125,-2.9228515625
0.195,-1.521484375,3.6435546875,-2.5224609375
0.1955,-2.3623046875,3.8837890625,-1.9619140625
0.196,-2.642578125,3.5634765625,-1.3212890625
0.1965,-3.203125,3.6435546875,-0.8408203125
0.197,-3.36328125,3.0029296875,-0.1201171875
0.1975,-3.763671875,2.8427734375,0.4404296875
0.198,-3.8837890625,2.2021484375,1.2412109375
0.1985,-4.0439453125,1.921875,1.6416015625
0.199,-3.603515625,0.9208984375,2.2021484375
0.1995,-3.5634765625,0.400390625,2.6826171875
0.2,-2.9228515625,-0.6005859375,2.9228515625
0.2005,-2.7626953125,-1.201171875,3.3232421875
0.201,-2.162109375,-2.0419921875,3.5634765625
0.2015,-1.6416015625,-2.40234375,3.36328125
0.202,-1.041015625,-2.962890625,3.4033203125
0.2025,-0.3203125,-3.2431640625,2.962890625
0.203,0.3603515625,-3.7236328125,2.72265625
0.2035,1.2412109375,-4.00390625,2.162109375
0.204,1.8017578125,-4.244140625,1.8017578125
0.2045,2.2021484375,-3.8837890625,1.12109375
0.205,2.5625,-3.9638671875,0.80078125
0.2055,2.8427734375,-3.443359375,0.0400390625
0.206,3.1630859375,-3.3232421875,-0.400390625
0.2065,3.443359375,-2.72265625,-1.28125
0.207,3.4033203125,-2.322265625,-1.6015625
0.2075,3.1630859375,-1.4013671875,-2.2822265625
0.208,2.8427734375,-0.720703125,-2.6025390625
0.2085,2.5224609375,0.0,-3.0830078125
0.209,2.2021484375,0.7607421875,-3.443359375
0.2095,1.76171875,1.44140625,-3.7236328125
0.21,1.0810546875,1.921875,-3.4033203125
0.2105,0.560546875,2.5625,-3.5234375
0.211,-0.3603515625,2.8828125,-2.9228515625
0.2115,-1.0009765625,3.36328125,-2.802734375
0.212,-1.9619140625,3.6435546875,-2.08203125
0.2125,-2.4423828125,3.68359375,-1.681640625
0.213,-2.9228515625,3.443359375,-0.9609375
0.2135,-3.203125,3.283203125,-0.5205078125
0.214,-3.4833984375,2.802734375,0.240234375
0.2145,-3.8037109375,2.482421875,0.80078125
0.215,-4.0439453125,1.9619140625,1.6015625
0.2155,-3.7236328125,1.2412109375,1.9619140625
0.216,-3.6435546875,0.5205078125,2.6025390625
0.2165,-3.0830078125,-0.3203125,2.802734375
0.217,-2.8427734375,-1.041015625,3.203125
0.2175,-2.2822265625,-1.841796875,3.443359375
0.218,-1.8017578125,-2.40234375,3.5634765625
0.2185,-1.041015625,-2.8427734375,3.203125
0.219,-0.5205078125,-3.36328125,3.203125
0.2195,0.3603515625,-3.603515625,2.6025390625
0.22,1.041015625,-4.00390625,2.3623046875
0.2205,1.9619140625,-4.244140625,1.681640625
0.221,2.2822265625,-4.00390625,1.1611328125
0.2215,2.72265625,-3.923828125,0.6005859375
0.222,2.962890625,-3.5634765625,0.0400390625
0.2225,3.2431640625,-3.203125,-0.640625
0.223,3.443359375,-2.6826171875,-1.28125
0.2235,3.68359375,-2.2421875,-2.001953125
0.224,3.123046875,-1.28125,-2.3623046875
0.2245,3.123046875,-0.720703125,-2.962890625
0.225,2.40234375,0.2001953125,-3.1630859375
0.2255,2.2421875,0.880859375,-3.603515625
0.226,1.5615234375,1.8017578125,-3.8037109375
0.2265,0.9208984375,2.3623046875,-3.68359375
0.227,0.2001953125,2.802734375,-3.4033203125
0.2275,-0.5205078125,3.2431640625,-3.1630859375
0.228,-1.44140625,3.5234375,-2.5224609375
0.2285,-2.162109375,3.84375,-2.08203125
0.229,-3.0029296875,4.00390625,-1.44140625
