wavelength,x,y,z
0.0,3.84375,-1.921875,-2.4423828125
0.0005,3.6435546875,-1.28125,-3.0029296875
0.001,3.0029296875,-0.2802734375,-3.3232421875
0.0015,2.8427734375,0.4404296875,-3.8037109375
0.002,1.9619140625,1.5615234375,-3.923828125
0.0025,1.6015625,2.0419921875,-4.1240234375
0.003,0.7607421875,2.8427734375,-4.00390625
0.0035,0.0,3.1630859375,-3.5634765625
0.004,-0.6806640625,3.5234375,-3.203125
0.0045,-1.7216796875,3.84375,-2.5224609375
0.005,-2.6025390625,3.9638671875,-1.841796875
0.0055,-3.1630859375,3.84375,-1.1611328125
0.006,-3.8037109375,3.8037109375,-0.5205078125
0.0065,-3.8837890625,3.123046875,0.3203125
0.007,-4.2041015625,2.9228515625,0.7607421875
0.0075,-4.32421875,2.0419921875,1.8017578125
0.008,-4.4443359375,1.6015625,2.2822265625
0.0085,-4.32421875,0.8408203125,3.0830078125
0.009,-3.923828125,-0.1201171875,3.4033203125
0.0095,-3.3232421875,-0.9609375,3.6435546875
0.01,-2.9228515625,-1.6416015625,3.9638671875
0.0105,-2.1220703125,-2.6826171875,4.1240234375
0.011,-1.6015625,-3.0830078125,4.083984375
0.0115,-0.80078125,-3.8837890625,3.9638671875
0.012,0.0400390625,-4.083984375,3.36328125
0.0125,0.6806640625,-4.484375,3.123046875
0.013,1.921875,-4.724609375,2.2021484375
0.0135,2.6826171875,-4.8447265625,1.5615234375
0.014,3.2431640625,-4.564453125,0.7607421875
0.0145,3.84375,-4.4443359375,0.0
0.015,3.8837890625,-3.7236328125,-0.80078125
0.0155,4.2041015625,-3.4833984375,-1.3212890625
0.016,4.404296875,-2.4423828125,-2.482421875
0.0165,4.404296875,-1.921875,-3.04296875
0.017,4.083984375,-0.9208984375,-3.7236328125
0.0175,3.4833984375,0.0400390625,-4.0439453125
0.018,2.8427734375,0.9609375,-4.244140625
0.0185,2.2421875,1.841796875,-4.5244140625
0.019,1.3212890625,2.9228515625,-4.6845703125
0.0195,0.6005859375,3.283203125,-4.32421875
0.02,-0.2802734375,4.00390625,-4.1240234375
0.0205,-1.1611328125,4.1240234375,-3.36328125
0.021,-1.8818359375,4.4443359375,-2.962890625
0.0215,-3.203125,4.6044921875,-1.841796875
0.022,-3.9638671875,4.6044921875,-1.0810546875
0.0225,-4.404296875,4.083984375,-0.080078125
0.023,-4.8447265625,3.84375,0.6005859375
0.0235,-4.7646484375,2.9228515625,1.4013671875
0.024,-4.96484375,2.482421875,2.001953125
0.0245,-5.125,1.28125,3.1630859375
0.025,-4.724609375,0.6005859375,3.5234375
0.0255,-4.5244140625,-0.5205078125,4.2041015625
0.026,-3.7236328125,-1.28125,4.404296875
0.0265,-3.0830078125,-2.08203125,4.484375
0.027,-2.2822265625,-3.04296875,4.64453125
0.0275,-1.4013671875,-4.00390625,4.7646484375
0.028,-0.48046875,-4.32421875,4.1240234375
0.0285,0.2802734375,-4.9248046875,4.00390625
0.029,1.201171875,-4.9248046875,3.123046875
0.0295,1.921875,-5.205078125,2.6826171875
0.03,3.283203125,-5.4052734375,1.4814453125
0.0305,3.9638671875,-5.205078125,0.6806640625
0.031,4.3642578125,-4.64453125,-0.3203125
0.0315,4.724609375,-4.3642578125,-1.0009765625
0.032,4.724609375,-3.4833984375,-1.8017578125
0.0325,4.8046875,-2.8828125,-2.482421875
0.033,5.044921875,-1.921875,-3.7236328125
0.0335,4.484375,-0.9208984375,-4.1240234375
0.034,4.083984375,0.16015625,-4.64453125
0.0345,3.203125,1.1611328125,-4.8046875
0.035,2.5625,1.9619140625,-4.9248046875
0.0355,1.6015625,3.04296875,-5.0048828125
0.036,0.720703125,4.00390625,-5.0849609375
0.0365,-0.4404296875,4.244140625,-4.1640625
0.037,-1.0810546875,4.8046875,-4.1240234375
0.0375,-2.2021484375,4.8046875,-2.962890625
0.038,-2.9228515625,4.96484375,-2.482421875
0.0385,-4.32421875,5.0849609375,-1.2412109375
0.039,-4.8447265625,4.724609375,-0.3203125
0.0395,-5.125,4.0439453125,0.640625
0.04,-5.4052734375,3.603515625,1.3212890625
0.0405,-5.365234375,2.5224609375,2.2021484375
0.041,-5.3251953125,1.8818359375,2.8427734375
0.0415,-5.525390625,0.8408203125,4.1240234375
0.042,-4.6044921875,-0.2001953125,4.244140625
0.0425,-4.32421875,-1.0810546875,4.8046875
0.043,-3.36328125,-2.08203125,4.8046875
0.0435,-2.72265625,-2.8828125,4.9248046875
0.044,-1.76171875,-3.8837890625,4.9248046875
0.0445,-0.80078125,-4.724609375,4.8046875
0.045,0.240234375,-4.8447265625,3.923828125
0.0455,0.880859375,-5.4052734375,3.84375
0.046,2.08203125,-5.4052734375,2.642578125
0.0465,2.72265625,-5.4453125,2.162109375
0.047,4.00390625,-5.60546875,0.9609375
0.0475,4.3642578125,-5.0048828125,0.0400390625
0.048,4.724609375,-4.5244140625,-0.80078125
0.0485,4.9248046875,-4.00390625,-1.5615234375
0.049,4.9248046875,-3.1630859375,-2.4423828125
0.0495,4.8447265625,-2.3623046875,-3.0830078125
0.05,5.0048828125,-1.4013671875,-4.1240234375
0.0505,4.00390625,-0.16015625,-4.3642578125
0.051,3.8037109375,0.6005859375,-4.8447265625
0.0515,2.6826171875,1.76171875,-4.8447265625
0.052,2.2021484375,2.482421875,-5.0048828125
0.0525,1.1611328125,3.5234375,-5.0048828125
0.053,0.2001953125,4.2041015625,-4.7646484375
0.0535,-0.8408203125,4.404296875,-3.923828125
0.054,-1.521484375,4.8447265625,-3.7236328125
0.0545,-2.7626953125,4.884765625,-2.482421875
0.055,-3.36328125,4.9248046875,-1.9619140625
0.0555,-4.5244140625,4.96484375,-0.8408203125
0.056,-4.7646484375,4.2041015625,0.1201171875
0.0565,-5.125,3.763671875,0.880859375
0.057,-5.205078125,3.0029296875,1.681640625
0.0575,-5.2451171875,2.2421875,2.482421875
0.058,-5.125,1.44140625,3.1630859375
0.0585,-5.1650390625,0.6005859375,4.083984375
0.059,-4.1640625,-0.640625,4.2041015625
0.0595,-4.0439453125,-1.28125,4.724609375
0.06,-2.8427734375,-2.482421875,4.6845703125
0.0605,-2.4423828125,-3.0830078125,4.8046875
0.061,-1.361328125,-4.0439453125,4.724609375
0.0615,-0.4404296875,-4.5244140625,4.32421875
0.062,0.4404296875,-4.8046875,3.7236328125
0.0625,1.2412109375,-5.125,3.283203125
0.063,2.3623046875,-5.205078125,2.2421875
0.0635,2.9228515625,-5.205078125,1.681640625
0.064,3.9638671875,-5.28515625,0.720703125
0.0645,4.083984375,-4.484375,-0.2802734375
0.065,4.484375,-4.2841796875,-0.8408203125
0.0655,4.5244140625,-3.4033203125,-1.8017578125
0.066,4.64453125,-2.7626953125,-2.4423828125
0.0665,4.484375,-1.921875,-3.203125
0.067,4.4443359375,-1.0810546875,-3.8837890625
0.0675,3.4833984375,0.1201171875,-4.0439453125
0.068,3.3232421875,0.7607421875,-4.5244140625
0.0685,2.2021484375,1.921875,-4.5244140625
0.069,1.8818359375,2.4423828125,-4.6845703125
0.0695,0.8408203125,3.4033203125,-4.6044921875
0.07,-0.1201171875,3.763671875,-4.0439453125
0.0705,-0.80078125,4.083984375,-3.6435546875
0.071,-1.7216796875,4.3642578125,-3.04296875
0.0715,-2.6826171875,4.484375,-2.2021484375
0.072,-3.283203125,4.404296875,-1.5615234375
0.0725,-4.1240234375,4.32421875,-0.720703125
0.073,-4.244140625,3.5634765625,0.2001953125
0.0735,-4.6044921875,3.443359375,0.640625
0.074,-4.64453125,2.482421875,1.6416015625
0.0745,-4.7646484375,2.1220703125,2.2021484375
0.075,-4.64453125,1.201171875,2.962890625
0.0755,-4.4443359375,0.4404296875,3.4833984375
0.076,-3.7236328125,-0.640625,3.763671875
0.0765,-3.5234375,-1.2412109375,4.1240234375
0.077,-2.5625,-2.2822265625,4.2041015625
0.0775,-2.2021484375,-2.7626953125,4.32421875
0.078,-1.28125,-3.6435546875,4.2841796875
0.0785,-0.400390625,-3.8837890625,3.68359375
0.079,0.2001953125,-4.3642578125,3.4833984375
0.0795,1.28125,-4.5244140625,2.6826171875
0.08,1.9619140625,-4.7646484375,2.162109375
0.0805,2.642578125,-4.7646484375,1.4013671875
0.081,3.283203125,-4.64453125,0.6806640625
0.0815,3.4833984375,-4.00390625,-0.16015625
0.082,3.84375,-3.84375,-0.6005859375
0.0825,3.923828125,-2.9228515625,-1.5615234375
0.083,4.083984375,-2.6025390625,-2.001953125
0.0835,4.083984375,-1.76171875,-2.8427734375
0.084,3.5634765625,-0.9208984375,-3.203125
0.0845,3.1630859375,0.0,-3.603515625
0.085,2.72265625,0.6806640625,-3.84375
0.0855,2.1220703125,1.5615234375,-4.1240234375
0.086,1.6015625,2.1220703125,-4.1240234375
0.0865,0.80078125,2.8427734375,-4.00390625
0.087,0.0,3.0830078125,-3.443359375
0.0875,-0.6005859375,3.5634765625,-3.36328125
0.088,-1.6015625,3.68359375,-2.4423828125
0.0885,-2.2021484375,3.923828125,-2.2021484375
0.089,-2.9228515625,3.84375,-1.4013671875
0.0895,-3.3232421875,3.603515625,-0.80078125
0.09,-3.603515625,3.1630859375,0.0
0.0905,-3.8837890625,3.0029296875,0.4404296875
0.091,-4.0439453125,2.322265625,1.28125
0.0915,-4.1640625,1.921875,1.7216796875
0.092,-4.2041015625,1.2412109375,2.5224609375
0.0925,-3.6435546875,0.3603515625,2.802734375
0.093,-3.5634765625,-0.3203125,3.3232421875
0.0935,-2.9228515625,-1.12109375,3.4833984375
0.094,-2.72265625,-1.8017578125,3.84375
0.0945,-2.001953125,-2.40234375,3.8037109375
0.095,-1.44140625,-2.962890625,3.763671875
0.0955,-0.640625,-3.283203125,3.283203125
0.096,0.0,-3.84375,3.203125
0.0965,0.9609375,-4.0439453125,2.40234375
0.097,1.5615234375,-4.3642578125,2.162109375
0.0975,2.2822265625,-4.3642578125,1.361328125
0.098,2.6025390625,-4.00390625,0.80078125
0.0985,3.04296875,-3.84375,0.2001953125
0.099,3.2431640625,-3.4033203125,-0.4404296875
0.0995,3.603515625,-3.04296875,-1.1611328125
0.1,3.603515625,-2.4423828125,-1.7216796875
0.1005,3.68359375,-1.8017578125,-2.4423828125
0.101,3.04296875,-0.8408203125,-2.72265625
0.1015,3.0830078125,-0.2802734375,-3.3232421875
0.102,2.322265625,0.6806640625,-3.4833984375
0.1025,2.2421875,1.28125,-3.8837890625
0.103,1.4013671875,1.9619140625,-3.7236328125
0.1035,0.80078125,2.40234375,-3.603515625
0.104,0.080078125,2.7626953125,-3.2431640625
0.1045,-0.640625,3.1630859375,-3.0029296875
0.105,-1.5615234375,3.36328125,-2.3623046875
0.1055,-2.08203125,3.5234375,-1.9619140625
0.106,-2.72265625,3.5634765625,-1.28125
0.1065,-2.962890625,3.123046875,-0.640625
0.107,-3.36328125,3.123046875,-0.16015625
0.1075,-3.5634765625,2.482421875,0.6005859375
0.108,-3.8837890625,2.2822265625,1.12109375
0.1085,-3.8037109375,1.5615234375,1.76171875
0.109,-3.8037109375,1.0009765625,2.2421875
0.1095,-3.283203125,0.1201171875,2.642578125
0.11,-3.283203125,-0.3603515625,3.123046875
0.1105,-2.642578125,-1.28125,3.3232421875
0.111,-2.482421875,-1.76171875,3.603515625
0.1115,-1.76171875,-2.4423828125,3.5234375
0.112,-1.1611328125,-2.802734375,3.3232421875
0.1125,-0.5205078125,-3.36328125,3.1630859375
0.113,0.3203125,-3.68359375,2.6826171875
0.1135,1.0810546875,-4.083984375,2.2421875
0.114,1.6416015625,-4.00390625,1.76171875
0.1145,2.2421875,-4.083984375,1.28125
0.115,2.5224609375,-3.6435546875,0.560546875
0.1155,3.0029296875,-3.68359375,0.1201171875
0.116,3.1630859375,-3.04296875,-0.720703125
0.1165,3.5234375,-2.8427734375,-1.28125
0.117,3.5234375,-2.001953125,-1.9619140625
0.1175,3.2431640625,-1.3212890625,-2.4423828125
0.118,2.9228515625,-0.5205078125,-2.9228515625
0.1185,2.642578125,0.16015625,-3.3232421875
0.119,2.162109375,1.041015625,-3.68359375
0.1195,1.76171875,1.521484375,-3.7236328125
0.12,1.0810546875,2.2421875,-3.7236328125
0.1205,0.3203125,2.5224609375,-3.283203125
0.121,-0.3203125,3.04296875,-3.203125
0.1215,-1.28125,3.203125,-2.4423828125
0.122,-1.9619140625,3.603515625,-2.08203125
0.1225,-2.5224609375,3.4833984375,-1.3212890625
0.123,-2.962890625,3.36328125,-0.8408203125
0.1235,-3.203125,2.8828125,-0.16015625
0.124,-3.5634765625,2.7626953125,0.3203125
0.1245,-3.8037109375,2.162109375,1.201171875
0.125,-3.8837890625,1.76171875,1.6015625
0.1255,-3.84375,1.0009765625,2.322265625
0.126,-3.4033203125,0.240234375,2.642578125
0.1265,-3.203125,-0.48046875,3.123046875
0.127,-2.72265625,-1.2412109375,3.36328125
0.1275,-2.3623046875,-1.9619140625,3.68359375
0.128,-1.7216796875,-2.40234375,3.5234375
0.1285,-1.1611328125,-3.0830078125,3.5234375
0.129,-0.400390625,-3.283203125,3.04296875
0.1295,0.2802734375,-3.84375,2.8828125
0.13,1.3212890625,-4.00390625,2.08203125
0.1305,1.921875,-4.244140625,1.76171875
0.131,2.482421875,-4.0439453125,0.9609375
0.1315,2.8427734375,-3.84375,0.4404296875
0.132,3.1630859375,-3.5634765625,-0.2001953125
0.1325,3.4033203125,-3.0830078125,-0.8408203125
0.133,3.7236328125,-2.6025390625,-1.681640625
0.1335,3.5634765625,-1.9619140625,-2.2021484375
0.134,3.5634765625,-1.1611328125,-2.8828125
0.1345,2.8828125,-0.2802734375,-3.1630859375
0.135,2.802734375,0.4404296875,-3.6435546875
0.1355,1.9619140625,1.4013671875,-3.84375
0.136,1.6015625,2.08203125,-4.1240234375
0.1365,0.720703125,2.5625,-3.7236328125
0.137,0.1201171875,3.123046875,-3.68359375
0.1375,-0.720703125,3.283203125,-3.04296875
0.138,-1.4814453125,3.763671875,-2.6826171875
0.1385,-2.642578125,3.9638671875,-1.76171875
0.139,-3.123046875,3.8037109375,-1.1611328125
0.1395,-3.6435546875,3.603515625,-0.400390625
0.14,-3.84375,3.123046875,0.2802734375
0.1405,-4.0439453125,2.7626953125,0.8408203125
0.141,-4.2041015625,2.0419921875,1.6416015625
0.1415,-4.4443359375,1.4814453125,2.482421875
0.142,-3.923828125,0.6005859375,2.8427734375
0.1425,-3.8837890625,-0.1201171875,3.4833984375
0.143,-3.0830078125,-1.0009765625,3.5234375
0.1435,-2.8828125,-1.6416015625,3.8837890625
0.144,-1.9619140625,-2.72265625,4.0439453125
0.1445,-1.4013671875,-3.2431640625,3.9638671875
0.145,-0.640625,-3.7236328125,3.5634765625
0.1455,0.0400390625,-4.083984375,3.3232421875
0.146,0.8408203125,-4.2041015625,2.72265625
0.1465,1.681640625,-4.5244140625,2.2021484375
0.147,2.802734375,-4.7646484375,1.361328125
0.1475,3.123046875,-4.32421875,0.6005859375
0.148,3.6435546875,-4.2041015625,0.0
0.1485,3.7236328125,-3.5634765625,-0.720703125
0.149,4.00390625,-3.203125,-1.3212890625
0.1495,4.1240234375,-2.40234375,-2.2822265625
0.15,4.244140625,-1.8017578125,-3.0029296875
0.1505,3.6435546875,-0.720703125,-3.4033203125
0.151,3.4833984375,0.0,-3.9638671875
0.1515,2.6025390625,1.0009765625,-4.00390625
0.152,2.2822265625,1.6416015625,-4.3642578125
0.1525,1.3212890625,2.802734375,-4.564453125
0.153,0.560546875,3.2431640625,-4.244140625
0.1535,-0.3203125,3.7236328125,-3.8837890625
0.154,-1.0810546875,4.083984375,-3.36328125
0.1545,-2.001953125,4.2841796875,-2.642578125
0.155,-2.8828125,4.4443359375,-1.9619140625
0.1555,-4.00390625,4.6044921875,-1.041015625
0.156,-4.2041015625,3.84375,-0.080078125
0.1565,-4.724609375,3.7236328125,0.5205078125
0.157,-4.724609375,2.8427734375,1.4013671875
0.1575,-4.8447265625,2.3623046875,2.0419921875
0.158,-4.9248046875,1.4013671875,3.04296875
0.1585,-4.8447265625,0.6005859375,3.68359375
0.159,-4.0439453125,-0.5205078125,3.9638671875
0.1595,-3.84375,-1.2412109375,4.4443359375
0.16,-2.72265625,-2.322265625,4.484375
0.1605,-2.2822265625,-2.962890625,4.564453125
0.161,-1.28125,-4.1240234375,4.64453125
0.1615,-0.3203125,-4.4443359375,3.9638671875
0.162,0.3603515625,-4.7646484375,3.7236328125
0.1625,1.4013671875,-5.044921875,3.0029296875
0.163,2.2822265625,-5.125,2.2021484375
0.1635,3.1630859375,-5.1650390625,1.4013671875
0.164,4.083984375,-5.205078125,0.560546875
0.1645,4.1240234375,-4.32421875,-0.4404296875
0.165,4.6044921875,-4.2041015625,-0.9609375
0.1655,4.6044921875,-3.1630859375,-2.001953125
0.166,4.64453125,-2.6826171875,-2.5224609375
0.1665,4.724609375,-1.6416015625,-3.5634765625
0.167,4.3642578125,-0.80078125,-4.1240234375
0.1675,3.5634765625,0.3603515625,-4.404296875
0.168,3.203125,1.1611328125,-4.8046875
0.1685,2.1220703125,2.2822265625,-4.8447265625
0.169,1.5615234375,2.8427734375,-4.9248046875
0.1695,0.560546875,3.9638671875,-4.96484375
0.17,-0.5205078125,4.244140625,-4.1240234375
0.1705,-1.2412109375,4.64453125,-3.84375
0.171,-2.482421875,4.9248046875,-2.8828125
0.1715,-3.283203125,4.96484375,-2.0419921875
0.172,-4.1640625,4.8447265625,-1.1611328125
0.1725,-5.0048828125,4.7646484375,-0.240234375
0.173,-5.0048828125,3.8037109375,0.80078125
0.1735,-5.365234375,3.5634765625,1.361328125
0.174,-5.4052734375,2.2822265625,2.6025390625
0.1745,-5.28515625,1.76171875,3.0830078125
0.175,-5.2451171875,0.6806640625,4.083984375
0.1755,-4.724609375,-0.3203125,4.484375
0.176,-3.923828125,-1.4013671875,4.724609375
0.1765,-3.36328125,-2.2822265625,4.96484375
0.177,-2.2421875,-3.5234375,5.0048828125
0.1775,-1.6015625,-3.9638671875,4.8046875
0.178,-0.560546875,-4.884765625,4.7646484375
0.1785,0.5205078125,-5.0048828125,3.84375
0.179,1.201171875,-5.365234375,3.5234375
0.1795,2.5224609375,-5.5654296875,2.40234375
0.18,3.2431640625,-5.4853515625,1.6015625
0.1805,4.00390625,-5.28515625,0.6806640625
0.181,4.64453125,-5.044921875,-0.2001953125
0.1815,4.64453125,-4.1240234375,-1.12109375
0.182,4.96484375,-3.84375,-1.6416015625
0.1825,4.96484375,-2.6025390625,-2.8828125
0.183,4.8046875,-2.08203125,-3.283203125
0.1835,4.724609375,-1.0009765625,-4.2041015625
0.184,4.00390625,0.1201171875,-4.5244140625
0.1845,3.3232421875,0.9609375,-4.8046875
0.185,2.6025390625,1.9619140625,-5.044921875
0.1855,1.6416015625,3.04296875,-5.125
0.186,0.9609375,3.5234375,-4.8447265625
0.1865,-0.1201171875,4.484375,-4.6845703125
0.187,-1.1611328125,4.5244140625,-3.763671875
0.1875,-1.8017578125,4.9248046875,-3.4833984375
0.188,-3.203125,5.044921875,-2.2021484375
0.1885,-3.8837890625,5.0048828125,-1.5615234375
0.189,-4.564453125,4.6845703125,-0.5205078125
0.1895,-5.1650390625,4.32421875,0.3203125
0.19,-5.125,3.443359375,1.28125
0.1905,-5.4052734375,3.04296875,1.8818359375
0.191,-5.4453125,1.841796875,3.123046875
0.1915,-5.1650390625,1.2412109375,3.443359375
0.192,-5.0048828125,0.16015625,4.32421875
0.1925,-4.1640625,-1.0009765625,4.484375
0.193,-3.603515625,-1.8017578125,4.7646484375
0.1935,-2.72265625,-2.8427734375,4.8447265625
0.194,-1.921875,-3.7236328125,4.96484375
0.1945,-1.0810546875,-4.1640625,4.5244140625
0.195,-0.16015625,-4.884765625,4.32421875
0.1955,0.8408203125,-4.9248046875,3.4033203125
0.196,1.521484375,-5.28515625,3.1630859375
0.1965,2.8427734375,-5.4052734375,1.8818359375
0.197,3.4033203125,-5.3251953125,1.28125
0.1975,4.083984375,-4.96484375,0.3203125
0.198,4.484375,-4.564453125,-0.5205078125
0.1985,4.484375,-3.84375,-1.28125
0.199,4.6845703125,-3.3232421875,-1.9619140625
0.1995,4.8046875,-2.322265625,-3.04296875
0.2,4.484375,-1.6416015625,-3.36328125
0.2005,4.3642578125,-0.6806640625,-4.2041015625
0.201,3.36328125,0.4404296875,-4.3642578125
0.2015,3.04296875,1.1611328125,-4.6845703125
0.202,2.0419921875,2.2822265625,-4.7646484375
0.2025,1.44140625,3.0830078125,-4.884765625
0.203,0.48046875,3.5234375,-4.3642578125
0.2035,-0.3603515625,4.2041015625,-4.2041015625
0.204,-1.3212890625,4.2041015625,-3.283203125
0.2045,-1.9619140625,4.6044921875,-3.04296875
0.205,-3.283203125,4.64453125,-1.8017578125
0.2055,-3.7236328125,4.5244140625,-1.28125
0.206,-4.3642578125,4.2041015625,-0.2802734375
0.2065,-4.64453125,3.68359375,0.5205078125
0.207,-4.7646484375,3.123046875,1.201171875
0.2075,-4.8447265625,2.40234375,1.921875
0.208,-5.044921875,1.6416015625,2.8427734375
0.2085,-4.564453125,0.880859375,3.1630859375
0.209,-4.484375,0.0,3.8837890625
0.2095,-3.5634765625,-1.0810546875,3.9638671875
0.21,-3.36328125,-1.6416015625,4.404296875
0.2105,-2.2822265625,-2.72265625,4.404296875
0.211,-1.8818359375,-3.283203125,4.484375
0.2115,-0.880859375,-3.8037109375,4.00390625
0.212,-0.16015625,-4.32421875,3.8037109375
0.2125,0.6806640625,-4.4443359375,3.123046875
0.213,1.44140625,-4.7646484375,2.6826171875
0.2135,2.5625,-4.9248046875,1.7216796875
0.214,2.8828125,-4.6845703125,1.201171875
0.2145,3.603515625,-4.5244140625,0.3603515625
0.215,3.7236328125,-3.8837890625,-0.3603515625
0.2155,4.0439453125,-3.68359375,-1.0009765625
0.216,4.083984375,-2.8427734375,-1.8017578125
0.2165,4.32421875,-2.4423828125,-2.5224609375
0.217,3.8837890625,-1.521484375,-2.962890625
0.2175,3.8037109375,-0.7607421875,-3.603515625
0.218,2.8828125,0.3603515625,-3.7236328125
0.2185,2.8427734375,0.9208984375,-4.1640625
0.219,1.841796875,2.0419921875,-4.2841796875
0.2195,1.4814453125,2.4423828125,-4.2841796875
0.22,0.4404296875,3.123046875,-3.923828125
0.2205,-0.2802734375,3.443359375,-3.5634765625
0.221,-1.041015625,3.763671875,-3.0830078125
0.2215,-1.8818359375,3.9638671875,-2.5224609375
0.222,-2.8427734375,4.2041015625,-1.8017578125
0.2225,-3.1630859375,3.84375,-1.12109375
0.223,-3.8037109375,3.8037109375,-0.48046875
0.2235,-3.84375,3.04296875,0.3203125
0.224,-4.1640625,2.8828125,0.80078125
0.2245,-4.244140625,2.001953125,1.7216796875
0.225,-4.4443359375,1.6416015625,2.2021484375
0.2255,-4.00390625,0.6806640625,2.72265625
0.226,-3.84375,0.1201171875,3.1630859375
0.2265,-3.203125,-0.80078125,3.443359375
0.227,-2.962890625,-1.361328125,3.763671875
0.2275,-2.2822265625,-2.322265625,3.9638671875
