wavelength,x,y,z
0.0,21.631103515625,-13.483154296875,-7.237060546875
0.0005,21.470947265625,-10.280029296875,-10.320068359375
0.001,20.710205078125,-5.795654296875,-14.083740234375
0.0015,19.509033203125,-1.311279296875,-17.406982421875
0.002,17.587158203125,2.812744140625,-19.609130859375
0.0025,15.985595703125,5.775634765625,-21.050537109375
0.003,13.262939453125,8.698486328125,-21.290771484375
0.0035,9.018798828125,12.021728515625,-20.489990234375
0.004,4.174072265625,15.545166015625,-19.328857421875
0.0045,-0.950927734375,18.588134765625,-17.487060546875
0.005,-4.874755859375,20.590087890625,-15.765380859375
0.0055,-7.477294921875,20.990478515625,-13.843505859375
0.006,-10.360107421875,20.990478515625,-11.200927734375
0.0065,-14.043701171875,20.029541015625,-6.796630859375
0.007,-17.166748046875,18.548095703125,-2.352294921875
0.0075,-19.649169921875,16.706298828125,1.931884765625
0.008,-21.290771484375,15.064697265625,5.215087890625
0.0085,-21.330810546875,12.342041015625,8.017822265625
0.009,-21.010498046875,8.698486328125,11.381103515625
0.0095,-20.049560546875,4.214111328125,14.904541015625
0.01,-18.728271484375,-0.270263671875,18.027587890625
0.0105,-16.926513671875,-4.033935546875,20.109619140625
0.011,-15.004638671875,-6.636474609375,20.830322265625
0.0115,-12.241943359375,-9.479248046875,20.990478515625
0.012,-7.437255859375,-13.282958984375,20.029541015625
0.0125,-2.552490234375,-16.365966796875,18.427978515625
0.013,2.011962890625,-18.888427734375,16.666259765625
0.0135,5.495361328125,-20.650146484375,15.224853515625
0.014,8.057861328125,-20.650146484375,12.822509765625
0.0145,10.940673828125,-20.369873046875,9.939697265625
0.015,14.664306640625,-19.529052734375,5.495361328125
0.0155,17.627197265625,-17.887451171875,0.970947265625
0.016,19.829345703125,-16.125732421875,-2.872802734375
0.0165,20.790283203125,-14.364013671875,-5.635498046875
0.017,20.830322265625,-11.521240234375,-8.478271484375
0.0175,20.189697265625,-7.277099609375,-12.161865234375
0.018,19.188720703125,-3.193115234375,-15.284912109375
0.0185,17.747314453125,1.010986328125,-17.967529296875
0.019,16.225830078125,4.494384765625,-20.009521484375
0.0195,13.743408203125,7.016845703125,-20.089599609375
0.02,10.980712890625,9.779541015625,-20.129638671875
0.0205,5.895751953125,13.783447265625,-19.208740234375
0.021,1.051025390625,16.786376953125,-17.487060546875
0.0215,-2.872802734375,18.788330078125,-15.885498046875
0.022,-5.795654296875,20.189697265625,-14.564208984375
0.0225,-8.598388671875,20.069580078125,-11.961669921875
0.023,-11.681396484375,19.468994140625,-8.478271484375
0.0235,-15.004638671875,18.548095703125,-4.434326171875
0.024,-17.847412109375,16.906494140625,0.130126953125
0.0245,-19.809326171875,15.344970703125,3.573486328125
0.025,-20.209716796875,13.142822265625,6.095947265625
0.0255,-20.249755859375,10.420166015625,8.938720703125
0.026,-19.529052734375,5.775634765625,12.902587890625
0.0265,-18.447998046875,1.771728515625,15.865478515625
0.027,-17.006591796875,-1.951904296875,18.067626953125
0.0275,-15.685302734375,-5.034912109375,19.909423828125
0.028,-12.962646484375,-7.637451171875,19.869384765625
0.0285,-9.519287109375,-10.680419921875,19.509033203125
0.029,-4.834716796875,-14.243896484375,18.548095703125
0.0295,0.210205078125,-17.246826171875,16.706298828125
0.03,3.693603515625,-19.048583984375,15.304931640625
0.0305,6.095947265625,-19.769287109375,13.783447265625
0.031,8.938720703125,-19.889404296875,11.260986328125
0.0315,12.662353515625,-18.928466796875,6.976806640625
0.032,15.505126953125,-17.847412109375,3.052978515625
0.0325,18.027587890625,-16.325927734375,-0.990966796875
0.033,19.789306640625,-14.884521484375,-4.114013671875
0.0335,19.709228515625,-12.322021484375,-6.596435546875
0.034,19.589111328125,-9.279052734375,-9.599365234375
0.0345,18.828369140625,-4.834716796875,-13.282958984375
0.035,17.667236328125,-0.670654296875,-16.325927734375
0.0355,16.185791015625,2.692626953125,-18.167724609375
0.036,14.664306640625,5.415283203125,-19.368896484375
0.0365,12.021728515625,8.057861328125,-19.489013671875
0.037,7.457275390625,11.741455078125,-18.728271484375
0.0375,3.293212890625,14.744384765625,-17.647216796875
0.038,-1.311279296875,17.427001953125,-16.005615234375
0.0385,-4.514404296875,19.148681640625,-14.724365234375
0.039,-6.876708984375,19.228759765625,-12.722412109375
0.0395,-9.399169921875,19.348876953125,-10.400146484375
0.04,-13.403076171875,18.387939453125,-5.715576171875
0.0405,-16.165771484375,16.946533203125,-1.591552734375
0.041,-18.247802734375,15.505126953125,1.891845703125
0.0415,-19.689208984375,13.943603515625,4.814697265625
0.042,-19.529052734375,11.220947265625,7.417236328125
0.0425,-19.208740234375,7.457275390625,10.940673828125
0.043,-18.447998046875,3.533447265625,14.103759765625
0.0435,-17.126708984375,-0.630615234375,16.946533203125
0.044,-15.685302734375,-3.793701171875,18.708251953125
0.0445,-13.723388671875,-6.196044921875,19.148681640625
0.045,-11.240966796875,-8.918701171875,19.388916015625
0.0455,-5.915771484375,-12.962646484375,18.307861328125
0.046,-1.591552734375,-15.725341796875,16.866455078125
0.0465,2.252197265625,-17.967529296875,15.585205078125
0.047,5.215087890625,-19.489013671875,14.263916015625
0.0475,7.777587890625,-19.208740234375,11.781494140625
0.048,10.620361328125,-18.968505859375,8.818603515625
0.0485,14.263916015625,-18.127685546875,4.494384765625
0.049,17.146728515625,-16.486083984375,0.130126953125
0.0495,18.908447265625,-15.164794921875,-2.952880859375
0.05,19.589111328125,-13.162841796875,-5.675537109375
0.0505,19.589111328125,-10.560302734375,-8.318115234375
0.051,18.948486328125,-5.915771484375,-12.362060546875
0.0515,18.027587890625,-2.232177734375,-15.124755859375
0.052,16.786376953125,1.571533203125,-17.647216796875
0.0525,15.344970703125,4.694580078125,-19.328857421875
0.053,12.662353515625,7.177001953125,-19.208740234375
0.0535,9.699462890625,10.139892578125,-19.248779296875
0.054,4.454345703125,14.103759765625,-18.207763671875
0.0545,-0.350341796875,16.946533203125,-16.406005859375
0.055,-3.553466796875,18.708251953125,-15.204833984375
0.0555,-6.436279296875,19.789306640625,-13.723388671875
0.056,-9.038818359375,19.509033203125,-10.960693359375
0.0565,-12.602294921875,18.828369140625,-6.916748046875
0.057,-15.685302734375,17.867431640625,-2.992919921875
0.0575,-18.367919921875,16.145751953125,1.331298828125
0.058,-19.889404296875,14.664306640625,4.334228515625
0.0585,-20.049560546875,12.101806640625,7.056884765625
0.059,-20.049560546875,9.218994140625,9.939697265625
0.0595,-19.208740234375,4.254150390625,14.103759765625
0.06,-17.887451171875,0.170166015625,16.906494140625
0.0605,-16.526123046875,-3.193115234375,18.868408203125
0.061,-14.964599609375,-6.115966796875,20.309814453125
0.0615,-11.801513671875,-8.758544921875,19.829345703125
0.062,-7.717529296875,-12.201904296875,19.348876953125
0.0625,-2.872802734375,-15.725341796875,18.107666015625
0.063,2.011962890625,-18.447998046875,16.145751953125
0.0635,4.974853515625,-19.849365234375,14.784423828125
0.064,7.697509765625,-20.169677734375,12.702392578125
0.0645,10.380126953125,-19.889404296875,9.979736328125
0.065,14.343994140625,-18.728271484375,5.094970703125
0.0655,17.146728515625,-17.326904296875,0.970947265625
0.066,19.348876953125,-15.765380859375,-2.752685546875
0.0665,20.429931640625,-13.963623046875,-5.635498046875
0.067,20.069580078125,-10.920654296875,-8.318115234375
0.0675,19.829345703125,-7.557373046875,-11.521240234375
0.068,18.908447265625,-3.072998046875,-15.124755859375
0.0685,17.306884765625,1.291259765625,-17.847412109375
0.069,15.745361328125,4.214111328125,-19.288818359375
0.0695,13.783447265625,6.976806640625,-20.129638671875
0.07,10.620361328125,9.659423828125,-19.689208984375
0.0705,5.495361328125,13.583251953125,-18.568115234375
0.071,1.091064453125,16.506103515625,-17.326904296875
0.0715,-3.153076171875,18.828369140625,-15.685302734375
0.072,-5.955810546875,19.909423828125,-14.163818359375
0.0725,-8.678466796875,19.709228515625,-11.521240234375
0.073,-11.481201171875,19.509033203125,-8.678466796875
0.0735,-15.204833984375,18.267822265625,-3.873779296875
0.074,-17.927490234375,16.506103515625,0.610595703125
0.0745,-19.529052734375,15.064697265625,3.533447265625
0.075,-20.289794921875,13.062744140625,6.336181640625
0.0755,-19.889404296875,9.979736328125,8.978759765625
0.076,-19.248779296875,5.735595703125,12.742431640625
0.0765,-18.327880859375,1.771728515625,15.745361328125
0.077,-16.886474609375,-2.272216796875,18.307861328125
0.0775,-15.244873046875,-5.114990234375,19.509033203125
0.078,-12.802490234375,-7.717529296875,19.789306640625
0.0785,-9.639404296875,-10.720458984375,19.549072265625
0.079,-4.114013671875,-14.644287109375,18.187744140625
0.0795,0.530517578125,-17.326904296875,16.506103515625
0.08,3.813720703125,-19.128662109375,15.224853515625
0.0805,6.536376953125,-19.929443359375,13.543212890625
0.081,9.259033203125,-19.529052734375,10.620361328125
0.0815,12.502197265625,-19.048583984375,7.096923828125
0.082,15.825439453125,-17.927490234375,2.812744140625
0.0825,18.468017578125,-16.045654296875,-1.631591796875
0.083,19.589111328125,-14.604248046875,-4.194091796875
0.0835,19.989501953125,-12.201904296875,-6.996826171875
0.084,19.709228515625,-9.158935546875,-9.759521484375
0.0845,18.828369140625,-4.354248046875,-13.763427734375
0.085,17.667236328125,-0.430419921875,-16.566162109375
0.0855,16.385986328125,3.133056640625,-18.848388671875
0.086,14.544189453125,5.935791015625,-19.769287109375
0.0865,11.541259765625,8.498291015625,-19.729248046875
0.087,7.817626953125,12.021728515625,-19.368896484375
0.0875,2.652587890625,15.625244140625,-18.007568359375
0.088,-2.112060546875,18.267822265625,-16.085693359375
0.0885,-4.994873046875,19.709228515625,-14.884521484375
0.089,-7.797607421875,20.229736328125,-12.802490234375
0.0895,-10.640380859375,19.749267578125,-9.679443359375
0.09,-14.283935546875,18.788330078125,-5.275146484375
0.0905,-17.286865234375,17.467041015625,-1.071044921875
0.091,-19.689208984375,15.745361328125,3.052978515625
0.0915,-20.449951171875,13.863525390625,5.655517578125
0.092,-20.489990234375,10.900634765625,8.658447265625
0.0925,-20.169677734375,7.377197265625,11.861572265625
0.093,-19.128662109375,2.612548828125,15.665283203125
0.0935,-17.487060546875,-1.671630859375,18.347900390625
0.094,-16.125732421875,-4.834716796875,20.189697265625
0.0945,-14.003662109375,-7.717529296875,20.790283203125
0.095,-10.360107421875,-10.640380859375,20.229736328125
0.0955,-5.755615234375,-14.323974609375,19.428955078125
0.096,-0.710693359375,-17.527099609375,17.867431640625
0.0965,3.853759765625,-19.889404296875,15.945556640625
0.097,6.496337890625,-20.650146484375,14.343994140625
0.0975,9.459228515625,-20.850341796875,11.821533203125
0.098,12.582275390625,-20.209716796875,8.177978515625
0.0985,16.185791015625,-18.928466796875,3.493408203125
0.099,19.068603515625,-17.206787109375,-1.031005859375
0.0995,21.110595703125,-15.565185546875,-4.674560546875
0.1,21.390869140625,-13.122802734375,-7.397216796875
0.1005,21.110595703125,-9.799560546875,-10.520263671875
0.101,20.429931640625,-5.595458984375,-14.083740234375
0.1015,19.268798828125,-1.151123046875,-17.447021484375
0.102,17.346923828125,3.213134765625,-19.849365234375
0.1025,15.545166015625,6.095947265625,-21.010498046875
0.103,12.942626953125,9.018798828125,-21.410888671875
0.1035,8.738525390625,12.342041015625,-20.570068359375
0.104,3.693603515625,15.985595703125,-19.288818359375
0.1045,-1.311279296875,18.948486328125,-17.527099609375
0.105,-5.395263671875,20.990478515625,-15.765380859375
0.1055,-7.957763671875,21.230712890625,-13.643310546875
0.106,-10.960693359375,21.110595703125,-10.720458984375
0.1065,-14.484130859375,20.229736328125,-6.556396484375
0.107,-17.807373046875,18.708251953125,-1.831787109375
0.1075,-20.329833984375,16.706298828125,2.692626953125
0.108,-21.851318359375,14.944580078125,5.895751953125
0.1085,-21.931396484375,12.101806640625,8.818603515625
0.109,-21.450927734375,8.298095703125,12.181884765625
0.1095,-20.329833984375,3.773681640625,15.705322265625
0.11,-18.968505859375,-0.710693359375,18.828369140625
0.1105,-17.126708984375,-4.754638671875,20.990478515625
0.111,-14.884521484375,-7.397216796875,21.430908203125
0.1115,-12.001708984375,-10.400146484375,21.631103515625
0.112,-7.197021484375,-14.083740234375,20.630126953125
0.1125,-1.991943359375,-17.326904296875,18.868408203125
0.113,2.732666015625,-19.849365234375,16.946533203125
0.1135,6.296142578125,-21.611083984375,15.385009765625
0.114,9.018798828125,-21.490966796875,12.782470703125
0.1145,12.021728515625,-21.090576171875,9.619384765625
0.115,15.705322265625,-20.049560546875,5.054931640625
0.1155,18.908447265625,-18.327880859375,0.290283203125
0.116,21.190673828125,-16.406005859375,-3.913818359375
0.1165,22.031494140625,-14.364013671875,-6.796630859375
0.117,22.071533203125,-11.321044921875,-9.919677734375
0.1175,21.430908203125,-6.956787109375,-13.643310546875
0.118,20.189697265625,-2.512451171875,-16.926513671875
0.1185,18.588134765625,1.931884765625,-19.729248046875
0.119,16.866455078125,5.615478515625,-21.811279296875
0.1195,13.983642578125,8.378173828125,-21.771240234375
0.12,10.860595703125,11.461181640625,-21.691162109375
0.1205,5.455322265625,15.625244140625,-20.570068359375
0.121,0.130126953125,18.828369140625,-18.688232421875
0.1215,-4.314208984375,20.950439453125,-16.726318359375
0.122,-7.517333984375,22.271728515625,-14.924560546875
0.1225,-10.520263671875,21.991455078125,-12.041748046875
0.123,-13.843505859375,21.230712890625,-8.157958984375
0.1235,-17.447021484375,19.989501953125,-3.513427734375
0.124,-20.570068359375,18.027587890625,1.611572265625
0.1245,-22.572021484375,16.025634765625,5.495361328125
0.125,-22.772216796875,13.302978515625,8.458251953125
0.1255,-22.772216796875,10.099853515625,11.701416015625
0.126,-21.811279296875,4.934814453125,15.945556640625
0.1265,-20.329833984375,0.410400390625,19.068603515625
0.127,-18.447998046875,-3.873779296875,21.390869140625
0.1275,-16.566162109375,-7.397216796875,23.072509765625
0.128,-13.122802734375,-10.280029296875,22.632080078125
0.1285,-9.158935546875,-13.603271484375,22.071533203125
0.129,-3.673583984375,-17.487060546875,20.630126953125
0.1295,2.052001953125,-20.650146484375,18.427978515625
0.13,6.055908203125,-22.371826171875,16.385986328125
0.1305,9.058837890625,-22.812255859375,14.103759765625
0.131,12.141845703125,-22.612060546875,11.020751953125
0.1315,15.985595703125,-21.290771484375,6.095947265625
0.132,19.148681640625,-19.809326171875,1.571533203125
0.1325,21.911376953125,-17.767333984375,-3.233154296875
0.133,23.352783203125,-15.725341796875,-6.836669921875
0.1335,23.072509765625,-12.362060546875,-9.759521484375
0.134,22.792236328125,-8.878662109375,-13.042724609375
0.1345,21.551025390625,-3.593505859375,-17.166748046875
0.135,19.869384765625,1.251220703125,-20.249755859375
0.1355,17.747314453125,5.054931640625,-22.091552734375
0.136,15.505126953125,8.298095703125,-23.052490234375
0.1365,12.021728515625,11.301025390625,-22.652099609375
0.137,6.936767578125,15.184814453125,-21.531005859375
0.1375,1.971923828125,18.387939453125,-20.009521484375
0.138,-3.473388671875,21.270751953125,-17.807373046875
0.1385,-7.076904296875,22.672119140625,-15.845458984375
0.139,-9.999755859375,22.471923828125,-12.962646484375
0.1395,-12.882568359375,22.271728515625,-10.119873046875
0.14,-17.046630859375,20.790283203125,-4.634521484375
0.1405,-20.049560546875,18.908447265625,0.210205078125
0.141,-22.171630859375,16.946533203125,4.174072265625
0.1415,-23.252685546875,14.744384765625,7.497314453125
0.142,-22.772216796875,11.220947265625,10.540283203125
0.1425,-22.251708984375,7.096923828125,14.223876953125
0.143,-21.010498046875,2.372314453125,17.707275390625
0.1435,-19.208740234375,-2.592529296875,20.790283203125
0.144,-17.126708984375,-6.115966796875,22.351806640625
0.1445,-14.524169921875,-8.958740234375,22.712158203125
0.145,-11.321044921875,-11.921630859375,22.511962890625
0.1455,-5.275146484375,-16.285888671875,20.990478515625
0.146,-0.350341796875,-19.168701171875,19.108642578125
0.1465,4.214111328125,-21.490966796875,17.226806640625
0.147,7.657470703125,-22.692138671875,15.264892578125
0.1475,10.620361328125,-22.131591796875,11.941650390625
0.148,13.703369140625,-21.731201171875,8.698486328125
0.1485,17.667236328125,-20.369873046875,3.533447265625
0.149,20.790283203125,-18.247802734375,-1.671630859375
0.1495,22.391845703125,-16.406005859375,-5.034912109375
0.15,22.912353515625,-13.883544921875,-8.157958984375
0.1505,22.511962890625,-10.600341796875,-11.080810546875
0.151,21.631103515625,-5.515380859375,-15.324951171875
0.1515,20.349853515625,-1.271240234375,-18.327880859375
0.152,18.588134765625,3.333251953125,-21.130615234375
0.1525,16.385986328125,6.856689453125,-22.491943359375
0.153,13.182861328125,9.739501953125,-22.211669921875
0.1535,9.859619140625,12.822509765625,-22.091552734375
0.154,3.733642578125,17.186767578125,-20.489990234375
0.1545,-1.671630859375,20.109619140625,-18.327880859375
0.155,-5.355224609375,21.871337890625,-16.646240234375
0.1555,-8.638427734375,22.752197265625,-14.484130859375
0.156,-11.681396484375,22.071533203125,-11.040771484375
0.1565,-15.244873046875,21.190673828125,-6.796630859375
0.157,-18.728271484375,19.869384765625,-2.112060546875
0.1575,-21.691162109375,17.627197265625,3.052978515625
0.158,-22.892333984375,15.585205078125,6.296142578125
0.1585,-23.012451171875,12.542236328125,9.419189453125
0.159,-22.692138671875,9.259033203125,12.422119140625
0.1595,-21.490966796875,3.653564453125,16.866455078125
0.16,-19.849365234375,-0.910888671875,19.789306640625
0.1605,-18.087646484375,-4.794677734375,21.951416015625
0.161,-15.845458984375,-8.117919921875,23.112548828125
0.1615,-12.001708984375,-11.240966796875,22.431884765625
0.162,-7.837646484375,-14.724365234375,21.911376953125
0.1625,-2.112060546875,-18.528076171875,20.189697265625
0.163,3.493408203125,-21.410888671875,17.787353515625
0.1635,6.696533203125,-22.531982421875,15.945556640625
0.164,9.899658203125,-22.932373046875,13.423095703125
0.1645,12.942626953125,-22.331787109375,9.979736328125
0.165,16.986572265625,-20.890380859375,4.694580078125
0.1655,20.149658203125,-19.288818359375,0.050048828125
0.166,22.672119140625,-17.246826171875,-4.514404296875
0.1665,23.392822265625,-14.884521484375,-7.677490234375
0.167,23.072509765625,-11.321044921875,-10.880615234375
0.1675,22.592041015625,-7.677490234375,-14.163818359375
0.168,21.310791015625,-2.312255859375,-18.167724609375
0.1685,19.228759765625,2.652587890625,-21.050537109375
0.169,17.306884765625,6.015869140625,-22.531982421875
0.1695,14.784423828125,9.218994140625,-23.292724609375
0.17,10.740478515625,12.422119140625,-22.491943359375
0.1705,5.375244140625,16.506103515625,-21.330810546875
0.171,0.170166015625,19.789306640625,-19.689208984375
0.1715,-5.034912109375,22.391845703125,-17.447021484375
0.172,-8.117919921875,23.032470703125,-15.284912109375
0.1725,-11.281005859375,22.912353515625,-12.241943359375
0.173,-14.404052734375,22.351806640625,-8.758544921875
0.1735,-18.447998046875,20.630126953125,-3.193115234375
0.174,-21.410888671875,18.548095703125,1.891845703125
0.1745,-23.332763671875,16.586181640625,5.615478515625
0.175,-23.813232421875,13.823486328125,8.858642578125
0.1755,-23.212646484375,9.939697265625,12.181884765625
0.176,-22.371826171875,5.375244140625,15.985595703125
0.1765,-21.010498046875,0.650634765625,19.468994140625
0.177,-18.928466796875,-4.274169921875,22.271728515625
0.1775,-16.606201171875,-7.397216796875,23.112548828125
0.178,-13.803466796875,-10.440185546875,23.432861328125
0.1785,-9.639404296875,-13.803466796875,22.672119140625
0.179,-3.553466796875,-17.887451171875,20.870361328125
0.1795,1.651611328125,-20.810302734375,18.908447265625
0.18,6.015869140625,-22.932373046875,16.946533203125
0.1805,9.058837890625,-23.212646484375,14.464111328125
0.181,12.342041015625,-22.732177734375,10.940673828125
