wavelength,x,y,z
0.0,-19.21875,7.3671875,10.9306640625
0.0005,-18.337890625,3.4833984375,14.013671875
0.001,-16.8564453125,-0.880859375,16.896484375
0.0015,-15.2548828125,-4.0439453125,18.4580078125
0.002,-13.4130859375,-6.56640625,19.21875
0.0025,-10.810546875,-9.2890625,19.3388671875
0.003,-5.5654296875,-13.1328125,18.09765625
0.0035,-1.28125,-15.8955078125,16.6962890625
0.004,2.72265625,-18.017578125,15.0947265625
0.0045,5.7255859375,-19.4990234375,13.7734375
0.005,8.328125,-19.4189453125,11.291015625
0.0055,11.0908203125,-19.298828125,8.568359375
0.006,14.3740234375,-18.1376953125,4.404296875
0.0065,17.13671875,-16.3359375,-0.16015625
0.007,18.578125,-14.814453125,-3.04296875
0.0075,19.37890625,-12.97265625,-5.6455078125
0.008,19.2587890625,-10.3701171875,-8.2080078125
0.0085,18.578125,-5.92578125,-12.01171875
0.009,17.537109375,-2.2021484375,-14.6943359375
0.0095,16.1357421875,1.76171875,-17.2568359375
0.01,14.57421875,4.8447265625,-18.73828125
0.0105,12.091796875,7.3271484375,-18.8583984375
0.011,9.208984375,10.2900390625,-18.9384765625
0.0115,4.1240234375,13.9736328125,-17.697265625
0.012,-0.6806640625,16.6962890625,-15.8955078125
0.0125,-3.84375,18.2978515625,-14.57421875
0.013,-6.646484375,19.4990234375,-13.1328125
0.0135,-9.2890625,19.2587890625,-10.6103515625
0.014,-12.572265625,18.578125,-6.7265625
0.0145,-15.4150390625,17.537109375,-2.962890625
0.015,-17.8974609375,15.6953125,1.3212890625
0.0155,-19.0986328125,14.09375,4.083984375
0.016,-19.37890625,11.8115234375,6.646484375
0.0165,-19.3388671875,9.0087890625,9.44921875
0.017,-18.4580078125,4.32421875,13.2529296875
0.0175,-17.056640625,0.2802734375,15.9755859375
0.018,-15.6552734375,-3.1630859375,17.9775390625
0.0185,-14.09375,-6.0859375,19.3388671875
0.019,-11.1708984375,-8.6484375,19.05859375
0.0195,-7.3271484375,-12.01171875,18.658203125
0.02,-2.6025390625,-15.2548828125,17.376953125
0.0205,2.2421875,-17.8974609375,15.375
0.021,5.044921875,-19.0986328125,14.013671875
0.0215,7.7275390625,-19.8193359375,12.171875
0.022,10.3701171875,-19.5791015625,9.609375
0.0225,13.93359375,-18.41796875,5.0849609375
0.023,16.65625,-16.9765625,1.0810546875
0.0235,18.658203125,-15.3349609375,-2.642578125
0.024,19.5791015625,-13.533203125,-5.28515625
0.0245,19.458984375,-10.7705078125,-7.9677734375
0.025,19.1787109375,-7.4072265625,-11.05078125
0.0255,18.2177734375,-3.1630859375,-14.4140625
0.026,16.5361328125,1.28125,-17.0966796875
0.0265,14.974609375,4.32421875,-18.578125
0.027,13.0927734375,7.0869140625,-19.5791015625
0.0275,9.9296875,9.8896484375,-19.2587890625
0.028,5.125,13.4931640625,-18.2177734375
0.0285,0.640625,16.416015625,-16.8564453125
0.029,-3.7236328125,18.6982421875,-15.0546875
0.0295,-6.40625,19.619140625,-13.533203125
0.03,-9.208984375,19.859375,-11.130859375
0.0305,-12.0517578125,19.4990234375,-8.2080078125
0.031,-15.294921875,18.177734375,-3.7236328125
0.0315,-17.9775390625,16.2958984375,0.80078125
0.032,-19.4990234375,14.6943359375,3.8837890625
0.0325,-20.1796875,12.65234375,6.56640625
0.033,-19.859375,9.5693359375,9.4091796875
0.0335,-19.138671875,5.365234375,12.8525390625
0.034,-17.9775390625,1.28125,15.8955078125
0.0345,-16.2958984375,-2.962890625,18.3779296875
0.035,-14.4541015625,-5.765625,19.4189453125
0.0355,-12.2119140625,-8.48828125,19.8994140625
0.036,-8.568359375,-11.611328125,19.4990234375
0.0365,-3.4833984375,-15.0947265625,17.9375
0.037,1.28125,-17.697265625,16.1357421875
0.0375,4.8447265625,-19.5390625,14.57421875
0.038,7.4873046875,-20.1396484375,12.8125
0.0385,10.25,-19.9794921875,10.08984375
0.039,13.4130859375,-19.21875,6.40625
0.0395,16.3759765625,-17.8173828125,2.1220703125
0.04,18.818359375,-15.775390625,-2.2421875
0.0405,19.779296875,-14.1337890625,-4.9248046875
0.041,20.1396484375,-11.8115234375,-7.5673828125
0.0415,19.69921875,-8.4482421875,-10.5302734375
0.042,18.6181640625,-4.1240234375,-13.8134765625
0.0425,17.2568359375,0.0400390625,-16.6162109375
0.043,15.6552734375,3.763671875,-18.73828125
0.0435,13.7333984375,6.40625,-19.5390625
0.044,10.970703125,9.12890625,-19.5390625
0.0445,6.88671875,12.5322265625,-19.0185546875
0.045,1.9619140625,15.7353515625,-17.45703125
0.0455,-2.642578125,18.09765625,-15.53515625
0.046,-5.5654296875,19.4990234375,-14.1337890625
0.0465,-8.2080078125,20.01953125,-12.251953125
0.047,-11.05078125,19.69921875,-9.208984375
0.0475,-14.25390625,18.6181640625,-5.125
0.048,-17.1767578125,17.0966796875,-0.880859375
0.0485,-19.21875,15.2548828125,3.04296875
0.049,-19.859375,13.4130859375,5.525390625
0.0495,-20.01953125,10.73046875,8.328125
0.05,-19.5390625,6.966796875,11.69140625
0.0505,-18.41796875,2.6826171875,14.8544921875
0.051,-16.736328125,-1.4814453125,17.4169921875
0.0515,-15.2548828125,-4.8046875,19.21875
0.052,-13.1328125,-7.4072265625,19.8193359375
0.0525,-9.8896484375,-10.2900390625,19.458984375
0.053,-5.4453125,-13.7333984375,18.5380859375
0.0535,-0.5205078125,-16.8564453125,16.896484375
0.054,3.8037109375,-18.9384765625,14.974609375
0.0545,6.40625,-19.8193359375,13.4931640625
0.055,9.208984375,-20.1796875,11.3310546875
0.0555,12.33203125,-19.5791015625,7.767578125
0.056,15.3349609375,-18.337890625,3.68359375
0.0565,18.017578125,-16.576171875,-0.720703125
0.057,19.859375,-14.814453125,-4.2041015625
0.0575,20.099609375,-12.65234375,-6.7265625
0.058,20.0595703125,-9.689453125,-9.6494140625
0.0585,19.2587890625,-5.525390625,-13.0927734375
0.059,18.0576171875,-1.28125,-16.095703125
0.0595,16.2158203125,2.8427734375,-18.41796875
0.06,14.5341796875,5.8056640625,-19.69921875
0.0605,12.1318359375,8.568359375,-20.1796875
0.061,8.087890625,11.8916015625,-19.5390625
0.0615,3.603515625,15.0146484375,-18.337890625
0.062,-1.44140625,18.017578125,-16.49609375
0.0625,-5.28515625,19.859375,-14.7744140625
0.063,-7.84765625,20.33984375,-12.8525390625
0.0635,-10.6904296875,20.5400390625,-10.490234375
0.064,-14.25390625,19.619140625,-6.1259765625
0.0645,-17.1767578125,18.0576171875,-1.8818359375
0.065,-19.5390625,16.1357421875,2.40234375
0.0655,-20.9404296875,14.333984375,5.60546875
0.066,-21.0205078125,11.6513671875,8.328125
0.0665,-20.7001953125,8.0078125,11.771484375
0.067,-19.5791015625,3.763671875,14.974609375
0.0675,-18.09765625,-0.9208984375,18.0576171875
0.068,-16.095703125,-4.8447265625,20.099609375
0.0685,-14.0537109375,-7.5673828125,20.7001953125
0.069,-11.37109375,-10.4501953125,21.0205078125
0.0695,-6.3662109375,-14.333984375,19.939453125
0.07,-1.5615234375,-17.13671875,18.2177734375
0.0705,3.203125,-19.619140625,16.17578125
0.071,6.806640625,-21.220703125,14.5341796875
0.0715,9.5693359375,-21.2607421875,12.01171875
0.072,12.4521484375,-21.060546875,9.208984375
0.0725,16.0556640625,-19.8994140625,4.6044921875
0.073,19.0185546875,-17.9775390625,-0.2802734375
0.0735,20.9404296875,-15.935546875,-4.1640625
0.074,21.78125,-13.8134765625,-7.0869140625
0.0745,21.701171875,-10.890625,-10.009765625
0.075,20.98046875,-6.40625,-13.853515625
0.0755,19.5390625,-2.2822265625,-16.6162109375
0.076,17.8173828125,2.40234375,-19.37890625
0.0765,15.8154296875,6.1259765625,-21.220703125
0.077,12.97265625,8.80859375,-21.1806640625
0.0775,10.0498046875,11.8115234375,-21.30078125
0.078,4.484375,15.8154296875,-19.8994140625
0.0785,-0.6806640625,18.6982421875,-17.8974609375
0.079,-4.8447265625,20.6201171875,-15.85546875
0.0795,-8.16796875,21.861328125,-14.09375
0.08,-10.970703125,21.701171875,-11.291015625
0.0805,-14.25390625,20.98046875,-7.4873046875
0.081,-17.376953125,19.619140625,-3.203125
0.0815,-20.33984375,17.45703125,1.921875
0.082,-21.8212890625,15.375,5.4853515625
0.0825,-22.1015625,12.7724609375,8.248046875
0.083,-22.0615234375,9.76953125,11.291015625
0.0835,-20.9404296875,4.6044921875,15.4150390625
0.084,-19.298828125,0.2802734375,18.177734375
0.0845,-17.376953125,-3.9638671875,20.419921875
0.085,-15.455078125,-7.52734375,22.0615234375
0.0855,-12.2119140625,-10.2900390625,21.6611328125
0.086,-8.4482421875,-13.533203125,21.2607421875
0.0865,-3.203125,-17.0966796875,19.7392578125
0.087,2.4423828125,-20.0595703125,17.4169921875
0.0875,6.166015625,-21.541015625,15.375
0.088,9.208984375,-22.3017578125,13.4130859375
0.0885,12.1318359375,-22.181640625,10.5703125
0.089,15.8955078125,-20.8603515625,5.6455078125
0.0895,18.6982421875,-19.2587890625,1.361328125
0.09,21.2607421875,-17.13671875,-3.283203125
0.0905,22.5419921875,-15.0146484375,-6.6865234375
0.091,22.26171875,-11.931640625,-9.529296875
0.0915,22.1015625,-8.5283203125,-12.732421875
0.092,20.7802734375,-3.4833984375,-16.5361328125
0.0925,18.8583984375,1.3212890625,-19.4990234375
0.093,16.7763671875,5.125,-21.140625
0.0935,14.734375,8.408203125,-22.4619140625
0.094,11.1708984375,11.451171875,-22.021484375
0.0945,6.1259765625,15.3349609375,-20.98046875
0.095,1.3212890625,18.337890625,-19.37890625
0.0955,-4.1640625,21.1005859375,-17.0166015625
0.096,-7.607421875,22.341796875,-15.0546875
0.0965,-10.650390625,22.4619140625,-12.3720703125
0.097,-13.4931640625,22.26171875,-9.5693359375
0.0975,-17.45703125,20.6201171875,-4.1240234375
0.098,-20.33984375,18.5380859375,0.8408203125
0.0985,-22.1416015625,16.3759765625,4.6845703125
0.099,-23.1025390625,14.1337890625,7.9677734375
0.0995,-22.58203125,10.5302734375,11.0107421875
0.1,-21.9814453125,6.40625,14.654296875
0.1005,-20.580078125,1.76171875,17.8974609375
0.101,-18.498046875,-3.283203125,20.8203125
0.1015,-16.17578125,-6.9267578125,22.0615234375
0.102,-13.7333984375,-9.849609375,22.6220703125
0.1025,-10.25,-12.8525390625,22.3818359375
0.103,-4.244140625,-16.9765625,20.6201171875
0.1035,0.80078125,-19.779296875,18.578125
0.104,5.4052734375,-21.94140625,16.4560546875
0.1045,8.728515625,-22.9423828125,14.4140625
0.105,12.01171875,-22.58203125,11.05078125
0.1055,14.89453125,-22.1015625,7.84765625
0.106,18.498046875,-20.3798828125,2.72265625
0.1065,21.380859375,-17.9375,-2.642578125
0.107,22.6220703125,-15.775390625,-5.92578125
0.1075,23.1826171875,-13.29296875,-9.0087890625
0.108,22.58203125,-9.76953125,-11.9716796875
0.1085,21.4609375,-4.8447265625,-15.9755859375
0.109,19.859375,-0.4404296875,-18.73828125
0.1095,17.857421875,4.2841796875,-21.4208984375
0.11,15.455078125,7.767578125,-22.4619140625
0.1105,12.171875,10.810546875,-22.421875
0.111,8.568359375,14.09375,-22.1015625
0.1115,2.6025390625,17.9375,-20.2197265625
0.112,-2.8828125,20.7001953125,-17.77734375
0.1125,-6.56640625,22.2216796875,-15.8955078125
0.113,-9.76953125,23.0625,-13.8134765625
0.1135,-12.97265625,22.4619140625,-10.25
0.114,-16.3759765625,21.3408203125,-5.92578125
0.1145,-19.458984375,19.69921875,-1.28125
0.115,-22.1015625,17.216796875,3.84375
0.1155,-22.8623046875,14.89453125,6.9267578125
0.116,-23.1025390625,11.931640625,10.08984375
0.1165,-22.58203125,8.328125,13.1728515625
0.117,-21.140625,3.04296875,17.13671875
0.1175,-19.1787109375,-1.7216796875,19.859375
0.118,-17.2568359375,-5.6455078125,21.9814453125
0.1185,-14.89453125,-8.8486328125,22.90234375
0.119,-11.2109375,-11.931640625,22.341796875
0.1195,-6.7666015625,-15.455078125,21.62109375
0.12,-1.2412109375,-18.8984375,19.69921875
0.1205,4.32421875,-21.5009765625,17.056640625
0.121,7.4873046875,-22.501953125,15.134765625
0.1215,10.6103515625,-23.0625,12.8125
0.122,13.7734375,-22.421875,9.2490234375
0.1225,17.3369140625,-20.8203125,4.2841796875
0.123,20.2998046875,-18.9384765625,-0.48046875
0.1235,22.4619140625,-16.6962890625,-4.884765625
0.124,22.982421875,-14.2939453125,-7.8076171875
0.1245,22.7421875,-10.9306640625,-11.0107421875
0.125,22.1015625,-6.966796875,-14.4140625
0.1255,20.6201171875,-2.0419921875,-17.8974609375
0.126,18.3779296875,2.962890625,-20.5400390625
0.1265,16.3359375,6.4462890625,-22.0615234375
0.127,13.8935546875,9.609375,-22.7822265625
0.1275,9.849609375,12.8525390625,-22.021484375
0.128,4.724609375,16.49609375,-20.7802734375
0.1285,-0.6005859375,19.69921875,-18.9384765625
0.129,-5.525390625,21.9814453125,-16.5361328125
0.1295,-8.48828125,22.662109375,-14.494140625
0.13,-11.7314453125,22.822265625,-11.69140625
0.1305,-15.0146484375,22.0615234375,-7.927734375
0.131,-18.4580078125,20.33984375,-2.8828125
0.1315,-21.220703125,18.0576171875,2.1220703125
0.132,-22.9423828125,15.935546875,5.8857421875
0.1325,-23.2626953125,13.29296875,8.9287109375
0.133,-22.8623046875,9.44921875,12.33203125
0.1335,-21.8212890625,4.8447265625,15.9755859375
0.134,-20.33984375,0.16015625,19.21875
0.1345,-18.017578125,-4.6845703125,21.78125
0.135,-15.6953125,-7.84765625,22.7021484375
0.1355,-13.0126953125,-10.970703125,23.1025390625
0.136,-8.3681640625,-14.6142578125,22.26171875
0.1365,-2.9228515625,-18.017578125,20.3798828125
0.137,2.40234375,-20.8603515625,18.2177734375
0.1375,6.7666015625,-22.8623046875,16.1357421875
0.138,9.76953125,-23.142578125,13.693359375
0.1385,13.052734375,-22.982421875,10.5302734375
0.139,16.6162109375,-21.94140625,6.0859375
0.1395,19.859375,-20.01953125,1.12109375
0.14,22.341796875,-17.6171875,-3.84375
0.1405,23.462890625,-15.4150390625,-7.20703125
0.141,23.623046875,-12.4921875,-10.330078125
0.1415,22.982421875,-8.1279296875,-13.9736328125
0.142,21.541015625,-3.443359375,-17.3369140625
0.1425,19.69921875,1.44140625,-20.3798828125
0.143,17.45703125,5.92578125,-22.6220703125
0.1435,14.7744140625,8.96875,-23.0224609375
0.144,11.6513671875,12.171875,-23.142578125
0.1445,6.3662109375,16.17578125,-22.0615234375
0.145,0.9208984375,19.37890625,-20.01953125
0.1455,-4.2841796875,21.8212890625,-17.6171875
0.146,-8.0478515625,23.3828125,-15.6552734375
0.1465,-11.05078125,23.4228515625,-12.9326171875
0.147,-14.4140625,22.8623046875,-9.2890625
0.1475,-17.9375,21.4609375,-4.564453125
0.148,-21.1005859375,19.3388671875,0.7607421875
0.1485,-23.142578125,16.81640625,5.205078125
0.149,-23.703125,14.333984375,8.248046875
0.1495,-23.703125,11.05078125,11.6513671875
0.15,-22.822265625,6.24609375,15.615234375
0.1505,-21.1806640625,1.5615234375,18.658203125
0.151,-19.0986328125,-3.203125,21.3408203125
0.1515,-16.9365234375,-7.3271484375,23.3427734375
0.152,-13.8935546875,-10.2099609375,23.22265625
0.1525,-10.25,-13.453125,22.90234375
0.153,-4.8447265625,-17.2568359375,21.5009765625
0.1535,0.9208984375,-20.4599609375,19.21875
0.154,5.60546875,-22.421875,16.7763671875
0.1545,8.80859375,-23.3828125,14.734375
0.155,12.01171875,-23.4228515625,11.8515625
0.1555,15.5751953125,-22.3818359375,7.52734375
0.156,18.6181640625,-20.7802734375,3.04296875
0.1565,21.62109375,-18.578125,-2.2021484375
0.157,23.3427734375,-16.2958984375,-6.2861328125
0.1575,23.3427734375,-13.373046875,-9.048828125
0.158,23.2626953125,-10.08984375,-12.33203125
0.1585,22.0615234375,-5.0048828125,-16.3359375
0.159,20.419921875,-0.2802734375,-19.298828125
0.1595,18.09765625,4.1240234375,-21.4208984375
0.16,16.0556640625,7.7275390625,-23.0625
0.1605,12.8125,10.73046875,-22.9423828125
0.161,8.328125,14.3740234375,-22.1015625
0.1615,3.4033203125,17.6572265625,-20.66015625
0.162,-2.40234375,20.8203125,-18.337890625
0.1625,-6.56640625,22.5419921875,-16.17578125
0.163,-9.4892578125,22.90234375,-13.8935546875
0.1635,-12.572265625,23.0224609375,-11.1708984375
0.164,-16.49609375,21.62109375,-6.005859375
0.1645,-19.37890625,19.779296875,-1.521484375
0.165,-21.78125,17.6171875,3.123046875
0.1655,-23.2626953125,15.4150390625,6.7666015625
0.166,-23.0625,12.2919921875,9.689453125
0.1665,-22.7021484375,8.4482421875,13.29296875
0.167,-21.5009765625,3.68359375,16.8564453125
0.1675,-19.6591796875,-1.361328125,20.01953125
0.168,-17.3369140625,-5.4453125,21.861328125
0.1685,-15.1748046875,-8.48828125,22.7021484375
0.169,-12.0517578125,-11.53125,22.7822265625
0.1695,-6.56640625,-15.53515625,21.4609375
0.17,-1.8017578125,-18.41796875,19.69921875
0.1705,3.443359375,-21.1005859375,17.4169921875
0.171,7.3271484375,-22.58203125,15.4150390625
0.1715,10.169921875,-22.501953125,12.6923828125
0.172,13.2529296875,-22.3818359375,9.849609375
0.1725,16.9365234375,-21.0205078125,4.8046875
0.173,19.9794921875,-18.9384765625,-0.3203125
0.1735,21.78125,-16.736328125,-4.1640625
0.174,22.7822265625,-14.57421875,-7.4072265625
0.1745,22.5419921875,-11.37109375,-10.330078125
0.175,21.8212890625,-6.8466796875,-14.25390625
0.1755,20.4599609375,-2.6025390625,-17.0966796875
0.176,18.6181640625,2.2421875,-20.0595703125
0.1765,16.416015625,6.0859375,-21.8212890625
0.177,13.7333984375,8.96875,-21.94140625
0.1775,10.73046875,11.9716796875,-22.1015625
0.178,4.8447265625,16.17578125,-20.5400390625
0.1785,-0.2802734375,19.0185546875,-18.5380859375
0.179,-4.5244140625,20.98046875,-16.5361328125
0.1795,-8.0078125,22.421875,-14.6943359375
0.18,-11.0107421875,22.0615234375,-11.611328125
0.1805,-14.1337890625,21.4609375,-8.16796875
0.181,-17.4169921875,20.259765625,-3.5634765625
0.1815,-20.419921875,17.8974609375,1.5615234375
0.182,-21.8212890625,15.775390625,5.0849609375
0.1825,-22.3017578125,13.3330078125,7.927734375
0.183,-22.26171875,10.2900390625,10.9306640625
0.1835,-21.1806640625,4.96484375,15.21484375
0.184,-19.619140625,0.80078125,17.9375
0.1845,-17.8173828125,-3.4833984375,20.33984375
0.185,-15.8154296875,-7.0869140625,22.021484375
0.1855,-12.6123046875,-9.8095703125,21.62109375
0.186,-9.0888671875,-13.0126953125,21.380859375
0.1865,-3.7236328125,-16.736328125,19.859375
0.187,1.8818359375,-19.619140625,17.45703125
0.1875,5.4453125,-21.1005859375,15.615234375
0.188,8.568359375,-22.0615234375,13.7333984375
0.1885,11.37109375,-21.861328125,10.9306640625
0.189,15.0546875,-20.7001953125,6.1259765625
0.1895,17.857421875,-19.21875,2.1220703125
0.19,20.4599609375,-17.13671875,-2.482421875
0.1905,21.62109375,-15.0947265625,-5.765625
0.191,21.541015625,-12.251953125,-8.408203125
0.1915,21.4609375,-9.1689453125,-11.4912109375
0.192,20.2998046875,-4.1640625,-15.375
0.1925,18.498046875,0.48046875,-18.2578125
0.193,16.65625,4.1240234375,-19.939453125
0.1935,14.814453125,7.287109375,-21.4208984375
0.194,11.53125,10.1298828125,-21.0205078125
0.1945,6.9267578125,13.8134765625,-20.1796875
0.195,2.3623046875,16.896484375,-18.8583984375
0.1955,-2.9228515625,19.6591796875,-16.65625
0.196,-6.2060546875,20.8603515625,-14.89453125
0.1965,-9.048828125,21.220703125,-12.65234375
0.197,-11.7314453125,21.220703125,-10.169921875
0.1975,-15.615234375,19.8193359375,-5.0048828125
0.198,-18.41796875,18.017578125,-0.5205078125
0.1985,-20.33984375,16.17578125,3.1630859375
0.199,-21.4208984375,14.2138671875,6.2060546875
0.1995,-21.1005859375,11.05078125,9.0087890625
0.2,-20.740234375,7.287109375,12.572265625
0.2005,-19.619140625,2.8828125,15.85546875
0.201,-17.8173828125,-1.8818359375,18.7783203125
0.2015,-15.8955078125,-5.1650390625,20.1796875
0.202,-13.853515625,-8.0078125,20.98046875
0.2025,-10.73046875,-10.890625,20.8603515625
0.203,-5.1650390625,-14.8544921875,19.37890625
0.2035,-0.560546875,-17.6572265625,17.77734375
0.204,3.84375,-19.939453125,15.935546875
0.2045,6.966796875,-21.140625,14.173828125
0.205,9.8896484375,-20.98046875,11.37109375
0.2055,12.7724609375,-20.66015625,8.4482421875
0.206,16.17578125,-19.298828125,3.763671875
0.2065,18.978515625,-17.1767578125,-1.12109375
0.207,20.33984375,-15.4150390625,-4.1240234375
0.2075,21.060546875,-13.3330078125,-6.9267578125
0.208,20.740234375,-10.2900390625,-9.6494140625
0.2085,19.859375,-5.6455078125,-13.4931640625
0.209,18.6982421875,-1.6015625,-16.3359375
0.2095,17.0166015625,2.642578125,-18.9384765625
0.21,15.0546875,5.845703125,-20.1796875
0.2105,12.33203125,8.48828125,-20.33984375
0.211,9.0888671875,11.69140625,-20.2197265625
0.2115,3.68359375,15.4150390625,-18.73828125
0.212,-1.3212890625,18.09765625,-16.6962890625
0.2125,-4.724609375,19.69921875,-15.134765625
0.213,-7.5673828125,20.740234375,-13.4931640625
0.2135,-10.3701171875,20.4599609375,-10.6103515625
0.214,-13.7333984375,19.5791015625,-6.646484375
0.2145,-16.65625,18.337890625,-2.6025390625
0.215,-19.1787109375,16.2958984375,1.9619140625
0.2155,-20.1396484375,14.4541015625,4.724609375
0.216,-20.4599609375,12.091796875,7.4072265625
0.2165,-20.2197265625,9.0087890625,10.25
0.217,-19.0986328125,4.1640625,14.09375
0.2175,-17.6572265625,0.0,16.7763671875
0.218,-16.095703125,-3.5634765625,18.818359375
0.2185,-14.2939453125,-6.486328125,20.01953125
0.219,-11.291015625,-9.12890625,19.69921875
