wavelength,x,y,z
0.0,16.065673828125,-20.369873046875,4.974853515625
0.0005,19.228759765625,-18.528076171875,0.090087890625
0.001,21.350830078125,-16.365966796875,-4.274169921875
0.0015,22.031494140625,-14.083740234375,-7.156982421875
0.002,22.231689453125,-11.120849609375,-10.239990234375
0.0025,21.631103515625,-6.796630859375,-14.003662109375
0.003,20.309814453125,-2.432373046875,-17.006591796875
0.0035,18.427978515625,2.092041015625,-19.769287109375
0.004,16.466064453125,5.815673828125,-21.531005859375
0.0045,13.743408203125,8.698486328125,-21.731201171875
0.005,10.340087890625,11.981689453125,-21.731201171875
0.0055,5.255126953125,15.825439453125,-20.650146484375
0.006,-0.270263671875,18.948486328125,-18.608154296875
0.0065,-4.754638671875,20.990478515625,-16.365966796875
0.007,-7.717529296875,21.951416015625,-14.604248046875
0.0075,-10.880615234375,22.111572265625,-11.801513671875
0.008,-14.323974609375,21.390869140625,-7.837646484375
0.0085,-17.487060546875,19.989501953125,-3.353271484375
0.009,-20.489990234375,17.787353515625,1.771728515625
0.0095,-22.251708984375,15.625244140625,5.615478515625
0.01,-22.451904296875,12.982666015625,8.498291015625
0.0105,-22.612060546875,9.899658203125,11.741455078125
0.011,-21.651123046875,5.014892578125,15.665283203125
0.0115,-20.129638671875,0.610595703125,18.668212890625
0.012,-17.967529296875,-3.833740234375,20.790283203125
0.0125,-15.965576171875,-7.277099609375,22.271728515625
0.013,-12.802490234375,-10.280029296875,22.351806640625
0.0135,-8.638427734375,-13.843505859375,21.791259765625
0.014,-3.633544921875,-17.366943359375,20.349853515625
0.0145,2.052001953125,-20.249755859375,18.067626953125
0.015,6.055908203125,-21.851318359375,15.945556640625
0.0155,8.898681640625,-22.291748046875,13.703369140625
0.016,12.101806640625,-22.451904296875,10.900634765625
0.0165,15.945556640625,-21.210693359375,6.055908203125
0.017,18.828369140625,-19.569091796875,1.531494140625
0.0175,21.390869140625,-17.406982421875,-3.193115234375
0.018,22.752197265625,-15.204833984375,-6.676513671875
0.0185,22.552001953125,-12.041748046875,-9.639404296875
0.019,22.471923828125,-8.518310546875,-13.082763671875
0.0195,21.310791015625,-3.753662109375,-16.646240234375
0.02,19.468994140625,1.131103515625,-19.729248046875
0.0205,17.146728515625,5.094970703125,-21.410888671875
0.021,14.904541015625,8.097900390625,-22.291748046875
0.0215,11.821533203125,11.220947265625,-22.371826171875
0.022,6.536376953125,15.224853515625,-21.290771484375
0.0225,1.851806640625,18.067626953125,-19.569091796875
0.023,-3.553466796875,20.790283203125,-17.286865234375
0.0235,-7.116943359375,22.151611328125,-15.324951171875
0.024,-10.039794921875,22.111572265625,-12.602294921875
0.0245,-12.962646484375,22.111572265625,-9.959716796875
0.025,-16.966552734375,20.670166015625,-4.674560546875
0.0255,-19.849365234375,18.548095703125,0.290283203125
0.026,-21.771240234375,16.506103515625,4.294189453125
0.0265,-22.772216796875,14.263916015625,7.457275390625
0.027,-22.572021484375,11.020751953125,10.500244140625
0.0275,-22.091552734375,6.736572265625,14.384033203125
0.028,-20.810302734375,2.492431640625,17.346923828125
0.0285,-18.928466796875,-2.432373046875,20.349853515625
0.029,-16.646240234375,-6.156005859375,21.871337890625
0.0295,-14.043701171875,-8.998779296875,22.151611328125
0.03,-10.960693359375,-12.161865234375,22.391845703125
0.0305,-4.994873046875,-16.406005859375,20.870361328125
0.031,0.090087890625,-19.168701171875,18.788330078125
0.0315,4.494384765625,-21.210693359375,16.706298828125
0.032,7.817626953125,-22.451904296875,14.864501953125
0.0325,10.900634765625,-22.211669921875,11.661376953125
0.033,14.063720703125,-21.851318359375,8.298095703125
0.0335,17.667236328125,-20.449951171875,3.493408203125
0.034,20.670166015625,-18.047607421875,-1.831787109375
0.0345,22.071533203125,-15.965576171875,-5.275146484375
0.035,22.712158203125,-13.443115234375,-8.358154296875
0.0355,22.552001953125,-10.360107421875,-11.361083984375
0.036,21.631103515625,-5.155029296875,-15.565185546875
0.0365,20.029541015625,-0.990966796875,-18.247802734375
0.037,18.147705078125,3.493408203125,-20.770263671875
0.0375,15.945556640625,7.056884765625,-22.171630859375
0.038,12.622314453125,10.059814453125,-21.931396484375
0.0385,9.259033203125,13.262939453125,-21.931396484375
0.039,3.533447265625,17.226806640625,-20.489990234375
0.0395,-2.072021484375,20.029541015625,-17.967529296875
0.04,-5.715576171875,21.470947265625,-15.965576171875
0.0405,-8.838623046875,22.391845703125,-13.963623046875
0.041,-12.001708984375,22.111572265625,-10.800537109375
0.0415,-15.645263671875,21.030517578125,-6.276123046875
0.042,-18.648193359375,19.509033203125,-1.831787109375
0.0425,-21.410888671875,17.226806640625,3.213134765625
0.043,-22.411865234375,15.024658203125,6.416259765625
0.0435,-22.491943359375,12.061767578125,9.459228515625
0.044,-22.451904296875,8.978759765625,12.502197265625
0.0445,-21.210693359375,3.693603515625,16.586181640625
0.045,-19.328857421875,-1.031005859375,19.348876953125
0.0455,-17.326904296875,-4.834716796875,21.190673828125
0.046,-15.244873046875,-8.157958984375,22.511962890625
0.0465,-11.561279296875,-11.240966796875,22.031494140625
0.047,-7.197021484375,-15.004638671875,21.390869140625
0.0475,-1.951904296875,-18.207763671875,19.709228515625
0.048,3.533447265625,-20.850341796875,17.266845703125
0.0485,6.656494140625,-21.851318359375,15.264892578125
0.049,9.739501953125,-22.291748046875,12.822509765625
0.0495,12.742431640625,-22.131591796875,9.899658203125
0.05,16.666259765625,-20.489990234375,4.614501953125
0.0505,19.509033203125,-18.608154296875,0.010009765625
0.051,21.591064453125,-16.526123046875,-4.194091796875
0.0515,22.431884765625,-14.364013671875,-7.197021484375
0.052,22.111572265625,-10.960693359375,-10.280029296875
0.0525,21.751220703125,-7.357177734375,-13.563232421875
0.053,20.469970703125,-2.672607421875,-17.006591796875
0.0535,18.427978515625,2.252197265625,-19.849365234375
0.054,16.185791015625,5.535400390625,-20.970458984375
0.0545,13.983642578125,8.658447265625,-21.931396484375
0.055,10.460205078125,11.701416015625,-21.531005859375
0.0555,4.974853515625,15.665283203125,-20.209716796875
0.056,0.290283203125,18.508056640625,-18.528076171875
0.0565,-4.474365234375,20.750244140625,-16.365966796875
0.057,-7.397216796875,21.510986328125,-14.484130859375
0.0575,-10.360107421875,21.470947265625,-11.601318359375
0.058,-13.202880859375,21.150634765625,-8.718505859375
0.0585,-16.886474609375,19.589111328125,-3.553466796875
0.059,-19.609130859375,17.346923828125,1.411376953125
0.0595,-21.010498046875,15.465087890625,4.614501953125
0.06,-21.771240234375,13.262939453125,7.537353515625
0.0605,-21.450927734375,10.019775390625,10.460205078125
0.061,-20.690185546875,5.575439453125,14.183837890625
0.0615,-19.489013671875,1.451416015625,17.106689453125
0.062,-17.647216796875,-3.032958984375,19.749267578125
0.0625,-15.445068359375,-6.115966796875,20.710205078125
0.063,-12.842529296875,-9.038818359375,21.110595703125
0.0635,-9.479248046875,-12.201904296875,20.990478515625
0.064,-3.793701171875,-16.005615234375,19.268798828125
0.0645,1.131103515625,-18.648193359375,17.306884765625
0.065,4.614501953125,-20.289794921875,15.625244140625
0.0655,7.537353515625,-21.170654296875,13.743408203125
0.066,10.460205078125,-20.810302734375,10.780517578125
0.0665,13.703369140625,-20.169677734375,7.056884765625
0.067,16.906494140625,-18.728271484375,2.572509765625
0.0675,19.549072265625,-16.566162109375,-2.232177734375
0.068,20.469970703125,-14.684326171875,-4.994873046875
0.0685,20.990478515625,-12.241943359375,-7.917724609375
0.069,20.790283203125,-9.198974609375,-10.800537109375
0.0695,19.789306640625,-4.434326171875,-14.604248046875
0.07,18.267822265625,-0.190185546875,-17.326904296875
0.0705,16.666259765625,3.573486328125,-19.448974609375
0.071,14.584228515625,6.576416015625,-20.449951171875
0.0715,11.501220703125,9.459228515625,-20.329833984375
0.072,7.697509765625,12.862548828125,-20.089599609375
0.0725,2.492431640625,16.345947265625,-18.528076171875
0.073,-2.632568359375,18.908447265625,-16.285888671875
0.0735,-5.435302734375,20.029541015625,-14.804443359375
0.074,-8.398193359375,20.790283203125,-12.802490234375
0.0745,-11.281005859375,20.510009765625,-9.839599609375
0.075,-14.804443359375,19.388916015625,-5.355224609375
0.0755,-17.687255859375,17.787353515625,-0.990966796875
0.076,-20.009521484375,15.825439453125,3.333251953125
0.0765,-20.650146484375,13.783447265625,6.015869140625
0.077,-20.850341796875,10.860595703125,9.098876953125
0.0775,-20.650146484375,7.377197265625,12.342041015625
0.078,-19.529052734375,2.852783203125,15.825439453125
0.0785,-17.687255859375,-1.671630859375,18.508056640625
0.079,-16.005615234375,-4.874755859375,19.989501953125
0.0795,-13.923583984375,-7.837646484375,20.950439453125
0.08,-10.360107421875,-10.880615234375,20.510009765625
0.0805,-5.755615234375,-14.484130859375,19.669189453125
0.081,-0.790771484375,-17.607177734375,17.987548828125
0.0815,3.893798828125,-19.849365234375,15.825439453125
0.082,6.536376953125,-20.489990234375,14.143798828125
0.0825,9.619384765625,-20.970458984375,11.701416015625
0.083,12.782470703125,-20.530029296875,8.338134765625
0.0835,16.145751953125,-19.128662109375,3.693603515625
0.084,18.908447265625,-17.246826171875,-0.990966796875
0.0845,20.670166015625,-15.405029296875,-4.514404296875
0.085,21.110595703125,-13.122802734375,-7.357177734375
0.0855,21.110595703125,-9.879638671875,-10.400146484375
0.086,20.429931640625,-5.715576171875,-13.923583984375
0.0865,19.188720703125,-1.351318359375,-17.046630859375
0.087,17.146728515625,3.093017578125,-19.489013671875
0.0875,15.184814453125,5.975830078125,-20.409912109375
0.088,12.782470703125,8.978759765625,-21.090576171875
0.0885,8.858642578125,12.221923828125,-20.610107421875
0.089,3.853759765625,15.625244140625,-19.168701171875
0.0895,-1.071044921875,18.427978515625,-17.326904296875
0.09,-5.114990234375,20.349853515625,-15.405029296875
0.0905,-7.717529296875,20.790283203125,-13.443115234375
0.091,-10.800537109375,20.910400390625,-10.720458984375
0.0915,-14.243896484375,20.189697265625,-6.676513671875
0.092,-17.326904296875,18.548095703125,-2.072021484375
0.0925,-19.849365234375,16.426025390625,2.532470703125
0.093,-21.010498046875,14.544189453125,5.455322265625
0.0935,-21.330810546875,12.021728515625,8.378173828125
0.094,-21.090576171875,8.498291015625,11.661376953125
0.0945,-20.009521484375,4.134033203125,14.904541015625
0.095,-18.568115234375,-0.310302734375,17.867431640625
0.0955,-16.646240234375,-4.354248046875,20.029541015625
0.096,-14.404052734375,-7.076904296875,20.590087890625
0.0965,-11.721435546875,-9.999755859375,20.990478515625
0.097,-7.237060546875,-13.643310546875,20.229736328125
0.0975,-2.192138671875,-16.726318359375,18.468017578125
0.098,2.492431640625,-19.088623046875,16.466064453125
0.0985,5.855712890625,-20.570068359375,14.824462890625
0.099,8.618408203125,-20.850341796875,12.582275390625
0.0995,11.581298828125,-20.730224609375,9.619384765625
0.1,15.064697265625,-19.729248046875,5.295166015625
0.1005,18.027587890625,-17.967529296875,0.690673828125
0.101,20.189697265625,-15.885498046875,-3.513427734375
0.1015,20.790283203125,-13.843505859375,-6.115966796875
0.102,21.110595703125,-11.200927734375,-9.118896484375
0.1025,20.590087890625,-7.197021484375,-12.642333984375
0.103,19.348876953125,-3.032958984375,-15.565185546875
0.1035,17.667236328125,1.291259765625,-18.167724609375
0.104,15.905517578125,4.814697265625,-20.009521484375
0.1045,13.423095703125,7.537353515625,-20.369873046875
0.105,10.460205078125,10.500244140625,-20.369873046875
0.1055,5.695556640625,14.223876953125,-19.489013671875
0.106,0.610595703125,17.306884765625,-17.647216796875
0.1065,-3.753662109375,19.268798828125,-15.685302734375
0.107,-6.436279296875,20.349853515625,-14.123779296875
0.1075,-9.359130859375,20.630126953125,-11.721435546875
0.108,-12.482177734375,20.109619140625,-8.318115234375
0.1085,-15.565185546875,18.868408203125,-4.154052734375
0.109,-18.447998046875,16.986572265625,0.610595703125
0.1095,-20.249755859375,15.064697265625,4.214111328125
0.11,-20.530029296875,12.782470703125,6.856689453125
0.1105,-20.770263671875,10.059814453125,9.779541015625
0.111,-20.049560546875,5.695556640625,13.503173828125
0.1115,-18.728271484375,1.531494140625,16.345947265625
0.112,-16.886474609375,-2.592529296875,18.548095703125
0.1125,-15.204833984375,-5.715576171875,20.029541015625
0.113,-12.562255859375,-8.598388671875,20.349853515625
0.1135,-8.918701171875,-11.801513671875,19.989501953125
0.114,-4.354248046875,-15.004638671875,18.868408203125
0.1145,0.730712890625,-17.927490234375,16.946533203125
0.115,4.494384765625,-19.609130859375,15.104736328125
0.1155,7.016845703125,-20.129638671875,13.343017578125
0.116,9.939697265625,-20.489990234375,10.980712890625
0.1165,13.503173828125,-19.569091796875,6.696533203125
0.117,16.345947265625,-18.207763671875,2.572509765625
0.1175,18.868408203125,-16.365966796875,-1.751708984375
0.118,20.349853515625,-14.604248046875,-4.954833984375
0.1185,20.429931640625,-11.961669921875,-7.677490234375
0.119,20.469970703125,-8.878662109375,-10.760498046875
0.1195,19.509033203125,-4.554443359375,-14.203857421875
0.12,18.067626953125,-0.150146484375,-17.166748046875
0.1205,16.105712890625,3.573486328125,-19.008544921875
0.121,14.263916015625,6.376220703125,-19.929443359375
0.1215,11.701416015625,9.218994140625,-20.369873046875
0.122,7.096923828125,12.942626953125,-19.569091796875
0.1225,2.692626953125,15.785400390625,-18.127685546875
0.123,-2.192138671875,18.427978515625,-16.205810546875
0.1235,-5.555419921875,19.989501953125,-14.604248046875
0.124,-8.157958984375,20.109619140625,-12.362060546875
0.1245,-10.880615234375,20.309814453125,-9.999755859375
0.125,-14.644287109375,19.188720703125,-5.275146484375
0.1255,-17.447021484375,17.427001953125,-0.870849609375
0.126,-19.408935546875,15.625244140625,2.932861328125
0.1265,-20.449951171875,13.743408203125,5.775634765625
0.127,-20.489990234375,10.940673828125,8.618408203125
0.1275,-20.209716796875,7.056884765625,12.181884765625
0.128,-19.088623046875,3.173095703125,15.064697265625
0.1285,-17.607177734375,-1.351318359375,17.947509765625
0.129,-15.685302734375,-4.874755859375,19.669189453125
0.1295,-13.443115234375,-7.477294921875,20.029541015625
0.13,-10.840576171875,-10.320068359375,20.469970703125
0.1305,-5.515380859375,-14.283935546875,19.268798828125
0.131,-0.910888671875,-17.006591796875,17.507080078125
0.1315,3.173095703125,-19.008544921875,15.785400390625
0.132,6.216064453125,-20.329833984375,14.263916015625
0.1325,8.978759765625,-20.289794921875,11.661376953125
0.133,12.021728515625,-20.049560546875,8.538330078125
0.1335,15.385009765625,-18.928466796875,4.174072265625
0.134,18.267822265625,-16.926513671875,-0.590576171875
0.1345,19.869384765625,-15.084716796875,-3.993896484375
0.135,20.469970703125,-12.962646484375,-6.716552734375
0.1355,20.630126953125,-10.320068359375,-9.479248046875
0.136,19.909423828125,-5.635498046875,-13.483154296875
0.1365,18.628173828125,-1.791748046875,-16.005615234375
0.137,16.946533203125,2.252197265625,-18.528076171875
0.1375,15.224853515625,5.575439453125,-20.049560546875
0.138,12.342041015625,8.298095703125,-20.009521484375
0.1385,9.259033203125,11.381103515625,-20.129638671875
0.139,4.134033203125,15.104736328125,-18.928466796875
0.1395,-1.071044921875,17.947509765625,-16.806396484375
0.14,-4.474365234375,19.468994140625,-15.084716796875
0.1405,-7.357177734375,20.469970703125,-13.443115234375
0.141,-10.199951171875,20.469970703125,-10.840576171875
0.1415,-13.683349609375,19.549072265625,-6.596435546875
0.142,-16.446044921875,18.307861328125,-2.512451171875
0.1425,-19.208740234375,16.265869140625,2.052001953125
0.143,-20.449951171875,14.343994140625,5.175048828125
0.1435,-20.530029296875,11.701416015625,7.937744140625
0.144,-20.730224609375,8.978759765625,10.860595703125
0.1445,-19.769287109375,4.134033203125,14.704345703125
0.145,-18.127685546875,-0.270263671875,17.427001953125
0.1455,-16.365966796875,-3.713623046875,19.188720703125
0.146,-14.644287109375,-6.796630859375,20.590087890625
0.1465,-11.481201171875,-9.639404296875,20.349853515625
0.147,-7.317138671875,-13.122802734375,19.829345703125
0.1475,-2.552490234375,-16.325927734375,18.427978515625
0.148,2.572509765625,-18.968505859375,16.305908203125
0.1485,5.615478515625,-20.129638671875,14.584228515625
0.149,8.538330078125,-20.650146484375,12.462158203125
0.1495,11.260986328125,-20.770263671875,10.019775390625
0.15,15.144775390625,-19.408935546875,4.974853515625
0.1505,17.907470703125,-17.767333984375,0.650634765625
0.151,19.909423828125,-15.965576171875,-3.193115234375
0.1515,20.950439453125,-13.963623046875,-6.156005859375
0.152,20.750244140625,-10.880615234375,-9.038818359375
0.1525,20.550048828125,-7.517333984375,-12.322021484375
0.153,19.509033203125,-3.113037109375,-15.685302734375
0.1535,17.667236328125,1.611572265625,-18.568115234375
0.154,15.705322265625,4.814697265625,-19.809326171875
0.1545,13.663330078125,7.737548828125,-20.730224609375
0.155,10.580322265625,10.660400390625,-20.650146484375
0.1555,5.175048828125,14.624267578125,-19.368896484375
0.156,0.690673828125,17.427001953125,-17.807373046875
0.1565,-3.953857421875,19.749267578125,-15.845458984375
0.157,-6.876708984375,20.670166015625,-14.123779296875
0.1575,-9.839599609375,20.670166015625,-11.321044921875
0.158,-12.602294921875,20.550048828125,-8.678466796875
0.1585,-16.205810546875,19.068603515625,-3.673583984375
0.159,-19.008544921875,16.906494140625,1.291259765625
0.1595,-20.369873046875,15.104736328125,4.334228515625
0.16,-21.170654296875,12.942626953125,7.297119140625
0.1605,-20.890380859375,9.899658203125,10.099853515625
0.161,-20.209716796875,5.455322265625,13.783447265625
0.1615,-18.968505859375,1.411376953125,16.666259765625
0.162,-17.206787109375,-3.032958984375,19.308837890625
0.1625,-15.124755859375,-6.115966796875,20.349853515625
0.163,-12.522216796875,-8.958740234375,20.670166015625
0.1635,-9.319091796875,-12.041748046875,20.670166015625
0.164,-3.713623046875,-15.885498046875,18.988525390625
0.1645,1.211181640625,-18.407958984375,16.986572265625
0.165,4.734619140625,-20.009521484375,15.344970703125
0.1655,7.617431640625,-20.890380859375,13.583251953125
0.166,10.660400390625,-20.650146484375,10.500244140625
0.1665,13.903564453125,-20.009521484375,6.736572265625
0.167,16.986572265625,-18.608154296875,2.372314453125
0.1675,19.709228515625,-16.406005859375,-2.512451171875
0.168,20.510009765625,-14.564208984375,-5.195068359375
0.1685,20.990478515625,-12.081787109375,-8.157958984375
0.169,20.830322265625,-9.038818359375,-11.040771484375
0.1695,19.789306640625,-4.194091796875,-14.844482421875
0.17,18.187744140625,0.130126953125,-17.487060546875
0.1705,16.506103515625,3.853759765625,-19.569091796875
0.171,14.464111328125,6.816650390625,-20.570068359375
0.1715,11.301025390625,9.739501953125,-20.449951171875
0.172,7.537353515625,13.102783203125,-20.209716796875
0.1725,2.332275390625,16.506103515625,-18.528076171875
0.173,-2.832763671875,19.068603515625,-16.205810546875
0.1735,-5.595458984375,20.109619140625,-14.724365234375
0.174,-8.558349609375,20.790283203125,-12.722412109375
0.1745,-11.481201171875,20.510009765625,-9.679443359375
0.175,-15.004638671875,19.268798828125,-5.114990234375
0.1755,-17.847412109375,17.747314453125,-0.750732421875
0.176,-20.129638671875,15.665283203125,3.533447265625
0.1765,-20.690185546875,13.583251953125,6.176025390625
0.177,-20.850341796875,10.620361328125,9.259033203125
0.1775,-20.570068359375,7.337158203125,12.302001953125
0.178,-19.448974609375,2.772705078125,15.825439453125
0.1785,-17.607177734375,-1.751708984375,18.427978515625
0.179,-15.885498046875,-4.914794921875,19.909423828125
0.1795,-13.843505859375,-7.837646484375,20.870361328125
0.18,-10.280029296875,-10.880615234375,20.469970703125
0.1805,-5.675537109375,-14.404052734375,19.509033203125
0.181,-0.750732421875,-17.487060546875,17.907470703125
