wavelength,x,y,z
0.0,1.12109375,-6.2861328125,3.0029296875
0.0005,-0.48046875,-6.326171875,4.484375
0.001,-1.201171875,-6.5263671875,5.4453125
0.0015,-1.76171875,-6.4462890625,6.166015625
0.002,-2.7626953125,-5.6455078125,6.4462890625
0.0025,-4.00390625,-4.2041015625,6.5263671875
0.003,-5.205078125,-2.7626953125,6.6064453125
0.0035,-6.1259765625,-1.44140625,6.5263671875
0.004,-6.486328125,-0.6806640625,6.5263671875
0.0045,-6.3662109375,0.16015625,5.92578125
0.005,-6.005859375,1.12109375,4.9248046875
0.0055,-5.60546875,2.5224609375,3.36328125
0.006,-5.28515625,3.923828125,1.8818359375
0.0065,-5.125,4.96484375,0.880859375
0.007,-4.8447265625,5.60546875,0.16015625
0.0075,-3.8837890625,5.6455078125,-0.80078125
0.008,-2.482421875,5.60546875,-2.162109375
0.0085,-1.0009765625,5.685546875,-3.7236328125
0.009,0.400390625,5.685546875,-5.0849609375
0.0095,0.9609375,5.92578125,-5.92578125
0.01,1.7216796875,5.6455078125,-6.4462890625
0.0105,2.8427734375,4.6044921875,-6.7265625
0.011,4.244140625,2.962890625,-6.8466796875
0.0115,5.4052734375,1.4013671875,-6.806640625
0.012,6.0859375,0.3203125,-6.7666015625
0.0125,6.3662109375,-0.5205078125,-6.6865234375
0.013,6.005859375,-1.3212890625,-5.765625
0.0135,5.60546875,-2.5224609375,-4.484375
0.014,5.2451171875,-4.00390625,-2.8828125
0.0145,4.9248046875,-5.28515625,-1.44140625
0.015,4.724609375,-6.166015625,-0.560546875
0.0155,4.2041015625,-6.6064453125,0.2802734375
0.016,3.04296875,-6.56640625,1.28125
0.0165,1.3212890625,-6.5263671875,2.8828125
0.017,-0.3603515625,-6.486328125,4.484375
0.0175,-1.3212890625,-6.486328125,5.5654296875
0.018,-1.8818359375,-6.6064453125,6.326171875
0.0185,-2.72265625,-5.845703125,6.646484375
0.019,-3.923828125,-4.564453125,6.7666015625
0.0195,-5.205078125,-3.04296875,6.7666015625
0.02,-6.2060546875,-1.4814453125,6.6865234375
0.0205,-6.6865234375,-0.6005859375,6.5263671875
0.021,-6.646484375,0.16015625,6.2060546875
0.0215,-6.166015625,1.0810546875,5.1650390625
0.022,-5.7255859375,2.3623046875,3.68359375
0.0225,-5.3251953125,3.7236328125,2.1220703125
0.023,-5.0849609375,4.8046875,0.9609375
0.0235,-4.8046875,5.5654296875,0.16015625
0.024,-4.0439453125,5.685546875,-0.6806640625
0.0245,-2.8828125,5.60546875,-1.681640625
0.025,-1.3212890625,5.60546875,-3.2431640625
0.0255,0.2001953125,5.5654296875,-4.6845703125
0.026,0.880859375,5.7255859375,-5.60546875
0.0265,1.4013671875,5.7255859375,-6.2861328125
0.027,2.322265625,4.96484375,-6.486328125
0.0275,3.603515625,3.5234375,-6.56640625
0.028,4.7646484375,2.08203125,-6.6064453125
0.0285,5.60546875,0.80078125,-6.56640625
0.029,6.0458984375,0.080078125,-6.56640625
0.0295,5.8857421875,-0.6806640625,-6.0859375
0.03,5.525390625,-1.5615234375,-5.125
0.0305,5.0849609375,-2.8828125,-3.7236328125
0.031,4.8046875,-4.2041015625,-2.2822265625
0.0315,4.64453125,-5.2451171875,-1.28125
0.032,4.484375,-5.9658203125,-0.6005859375
0.0325,3.6435546875,-6.0458984375,0.3203125
0.033,2.40234375,-6.1259765625,1.4814453125
0.0335,0.9208984375,-6.1259765625,2.962890625
0.034,-0.400390625,-6.166015625,4.32421875
0.0345,-1.041015625,-6.4462890625,5.28515625
0.035,-1.6416015625,-6.2861328125,5.845703125
0.0355,-2.5625,-5.4853515625,6.166015625
0.036,-3.8837890625,-4.083984375,6.2861328125
0.0365,-5.0849609375,-2.642578125,6.326171875
0.037,-5.845703125,-1.6015625,6.40625
0.0375,-6.166015625,-0.9208984375,6.40625
0.038,-5.92578125,-0.16015625,5.7255859375
0.0385,-5.6455078125,0.9208984375,4.64453125
0.039,-5.3251953125,2.2421875,3.283203125
0.0395,-5.125,3.5634765625,1.9619140625
0.04,-5.0048828125,4.5244140625,1.12109375
0.0405,-4.724609375,5.044921875,0.4404296875
0.041,-3.84375,5.125,-0.560546875
0.0415,-2.4423828125,5.1650390625,-1.9619140625
0.042,-1.0810546875,5.28515625,-3.36328125
0.0425,0.0,5.4853515625,-4.5244140625
0.043,0.6005859375,5.765625,-5.4052734375
0.0435,1.361328125,5.28515625,-5.8056640625
0.044,2.40234375,4.32421875,-6.1259765625
0.0445,3.68359375,2.962890625,-6.2861328125
0.045,4.8046875,1.5615234375,-6.2861328125
0.0455,5.4453125,0.720703125,-6.40625
0.046,5.60546875,0.1201171875,-6.2861328125
0.0465,5.365234375,-0.80078125,-5.525390625
0.047,5.0048828125,-1.921875,-4.2841796875
0.0475,4.7646484375,-3.203125,-2.962890625
0.048,4.6044921875,-4.404296875,-1.8818359375
0.0485,4.5244140625,-5.28515625,-1.12109375
0.049,3.9638671875,-5.6455078125,-0.400390625
0.0495,3.04296875,-5.765625,0.6005859375
0.05,1.681640625,-5.765625,2.001953125
0.0505,0.3603515625,-5.845703125,3.443359375
0.051,-0.48046875,-6.1259765625,4.484375
0.0515,-1.0009765625,-6.2861328125,5.2451171875
0.052,-1.841796875,-5.7255859375,5.5654296875
0.0525,-3.0029296875,-4.564453125,5.765625
0.053,-4.1240234375,-3.3232421875,5.92578125
0.0535,-5.0849609375,-2.1220703125,6.005859375
0.054,-5.6455078125,-1.44140625,6.1259765625
0.0545,-5.6455078125,-0.80078125,5.765625
0.055,-5.4052734375,0.0400390625,5.0849609375
0.0555,-5.125,1.201171875,3.923828125
0.056,-4.9248046875,2.5224609375,2.642578125
0.0565,-4.884765625,3.5234375,1.76171875
0.057,-4.8447265625,4.3642578125,1.12109375
0.0575,-4.2041015625,4.5244140625,0.3203125
0.058,-3.203125,4.724609375,-0.80078125
0.0585,-2.08203125,4.9248046875,-2.08203125
0.059,-0.880859375,5.0849609375,-3.4033203125
0.0595,-0.2802734375,5.4853515625,-4.4443359375
0.06,0.48046875,5.4853515625,-5.125
0.0605,1.3212890625,4.884765625,-5.4853515625
0.061,2.5625,3.763671875,-5.765625
0.0615,3.763671875,2.4423828125,-5.8857421875
0.062,4.6044921875,1.521484375,-6.1259765625
0.0625,5.0849609375,0.880859375,-6.2861328125
0.063,5.044921875,0.240234375,-5.765625
0.0635,4.8447265625,-0.80078125,-5.0048828125
0.064,4.64453125,-1.9619140625,-3.8837890625
0.0645,4.5244140625,-3.2431640625,-2.72265625
0.065,4.564453125,-4.32421875,-1.9619140625
0.0655,4.404296875,-5.0048828125,-1.28125
0.066,3.7236328125,-5.1650390625,-0.48046875
0.0665,2.6025390625,-5.3251953125,0.8408203125
0.067,1.361328125,-5.525390625,2.2021484375
0.0675,0.48046875,-5.8056640625,3.4033203125
0.068,-0.240234375,-6.166015625,4.404296875
0.0685,-0.9609375,-5.92578125,4.9248046875
0.069,-1.921875,-5.205078125,5.2451171875
0.0695,-3.0830078125,-4.1640625,5.5654296875
0.07,-4.244140625,-2.8427734375,5.7255859375
0.0705,-5.0048828125,-2.0419921875,5.92578125
0.071,-5.3251953125,-1.44140625,5.9658203125
0.0715,-5.205078125,-0.7607421875,5.4052734375
0.072,-5.0048828125,0.2802734375,4.484375
0.0725,-4.8447265625,1.44140625,3.3232421875
0.073,-4.8447265625,2.6826171875,2.3623046875
0.0735,-4.9248046875,3.6435546875,1.6416015625
0.074,-4.5244140625,4.1240234375,1.0009765625
0.0745,-3.8037109375,4.404296875,0.1201171875
0.075,-2.72265625,4.6044921875,-1.2412109375
0.0755,-1.5615234375,4.8046875,-2.5625
0.076,-0.8408203125,5.2451171875,-3.68359375
0.0765,-0.2001953125,5.525390625,-4.564453125
0.077,0.6806640625,5.0849609375,-5.044921875
0.0775,1.841796875,4.1640625,-5.365234375
0.078,3.0029296875,3.04296875,-5.6455078125
0.0785,4.00390625,1.9619140625,-5.845703125
0.079,4.724609375,1.28125,-6.1259765625
0.0795,4.8447265625,0.640625,-5.92578125
0.08,4.8046875,-0.240234375,-5.3251953125
0.0805,4.6044921875,-1.4013671875,-4.32421875
0.081,4.484375,-2.642578125,-3.1630859375
0.0815,4.484375,-3.84375,-2.322265625
0.082,4.564453125,-4.64453125,-1.6416015625
0.0825,3.9638671875,-4.96484375,-0.8408203125
0.083,3.04296875,-5.1650390625,0.2802734375
0.0835,1.921875,-5.4052734375,1.5615234375
0.084,0.80078125,-5.6455078125,2.9228515625
0.0845,0.16015625,-6.0458984375,3.9638671875
0.085,-0.6005859375,-6.1259765625,4.6845703125
0.0855,-1.4814453125,-5.525390625,5.125
0.086,-2.6826171875,-4.4443359375,5.4052734375
0.0865,-3.8837890625,-3.203125,5.60546875
0.087,-4.7646484375,-2.2421875,5.8056640625
0.0875,-5.2451171875,-1.6416015625,6.005859375
0.088,-5.205078125,-1.0009765625,5.4853515625
0.0885,-5.044921875,0.0,4.7646484375
0.089,-4.884765625,1.12109375,3.68359375
0.0895,-4.8447265625,2.40234375,2.5224609375
0.09,-4.884765625,3.4833984375,1.8017578125
0.0905,-4.724609375,4.1240234375,1.12109375
0.091,-4.0439453125,4.3642578125,0.3603515625
0.0915,-2.9228515625,4.5244140625,-0.9609375
0.092,-1.8017578125,4.8046875,-2.2822265625
0.0925,-0.9609375,5.0849609375,-3.4833984375
0.093,-0.3203125,5.4853515625,-4.484375
0.0935,0.560546875,5.205078125,-5.0048828125
0.094,1.5615234375,4.484375,-5.365234375
0.0945,2.7626953125,3.3232421875,-5.6455078125
0.095,3.923828125,2.0419921875,-5.8056640625
0.0955,4.64453125,1.28125,-6.0859375
0.096,5.0048828125,0.6806640625,-6.1259765625
0.0965,4.884765625,-0.2001953125,-5.525390625
0.097,4.724609375,-1.2412109375,-4.5244140625
0.0975,4.5244140625,-2.482421875,-3.4033203125
0.098,4.5244140625,-3.6435546875,-2.3623046875
0.0985,4.5244140625,-4.564453125,-1.6416015625
0.099,4.1240234375,-5.044921875,-0.9609375
0.0995,3.283203125,-5.2451171875,0.1201171875
0.1,2.08203125,-5.4453125,1.4013671875
0.1005,0.880859375,-5.6455078125,2.8427734375
0.101,0.16015625,-6.005859375,3.8837890625
0.1015,-0.6005859375,-6.24609375,4.8046875
0.102,-1.4013671875,-5.7255859375,5.205078125
0.1025,-2.5625,-4.64453125,5.4853515625
0.103,-3.8037109375,-3.4833984375,5.7255859375
0.1035,-4.8046875,-2.2822265625,5.8857421875
0.104,-5.4052734375,-1.6015625,6.0859375
0.1045,-5.4453125,-1.0009765625,5.7255859375
0.105,-5.28515625,-0.2001953125,5.044921875
0.1055,-5.0849609375,1.0810546875,3.8837890625
0.106,-4.9248046875,2.4423828125,2.642578125
0.1065,-4.9248046875,3.5634765625,1.76171875
0.107,-4.8447265625,4.32421875,1.0810546875
0.1075,-4.1640625,4.564453125,0.3203125
0.108,-3.0830078125,4.6845703125,-0.9208984375
0.1085,-1.9619140625,4.9248046875,-2.2822265625
0.109,-0.80078125,5.125,-3.603515625
0.1095,-0.2001953125,5.4853515625,-4.6044921875
0.11,0.640625,5.4052734375,-5.28515625
0.1105,1.5615234375,4.724609375,-5.6455078125
0.111,2.8828125,3.443359375,-5.8857421875
0.1115,4.1240234375,2.08203125,-6.0458984375
0.112,4.9248046875,1.12109375,-6.166015625
0.1125,5.4052734375,0.48046875,-6.2861328125
0.113,5.1650390625,-0.3603515625,-5.685546875
0.1135,4.9248046875,-1.4013671875,-4.6845703125
0.114,4.724609375,-2.642578125,-3.443359375
0.1145,4.6044921875,-3.923828125,-2.2421875
0.115,4.6044921875,-4.884765625,-1.361328125
0.1155,4.2841796875,-5.4853515625,-0.6806640625
0.116,3.36328125,-5.60546875,0.2802734375
0.1165,2.0419921875,-5.7255859375,1.6416015625
0.117,0.720703125,-5.8056640625,3.123046875
0.1175,-0.2802734375,-6.1259765625,4.2841796875
0.118,-0.8408203125,-6.3662109375,5.1650390625
0.1185,-1.681640625,-5.845703125,5.60546875
0.119,-2.8427734375,-4.8447265625,5.8857421875
0.1195,-4.1240234375,-3.5634765625,6.0859375
0.12,-5.205078125,-2.1220703125,6.166015625
0.1205,-5.845703125,-1.3212890625,6.24609375
0.121,-5.9658203125,-0.6806640625,6.0458984375
0.1215,-5.7255859375,0.240234375,5.205078125
0.122,-5.365234375,1.521484375,3.9638671875
0.1225,-5.125,2.8828125,2.5625
0.123,-5.044921875,4.0439453125,1.44140625
0.1235,-4.884765625,4.8447265625,0.720703125
0.124,-4.244140625,5.125,0.0
0.1245,-3.203125,5.1650390625,-1.1611328125
0.125,-1.76171875,5.3251953125,-2.72265625
0.1255,-0.3603515625,5.4052734375,-4.1640625
0.126,0.400390625,5.685546875,-5.1650390625
0.1265,1.041015625,5.7255859375,-5.92578125
0.127,2.0419921875,4.8447265625,-6.24609375
0.1275,3.4033203125,3.4833984375,-6.40625
0.128,4.6044921875,2.0419921875,-6.5263671875
0.1285,5.4853515625,0.80078125,-6.486328125
0.129,5.92578125,0.0400390625,-6.56640625
0.1295,5.765625,-0.80078125,-6.005859375
0.13,5.4453125,-1.76171875,-4.96484375
0.1305,5.0849609375,-3.203125,-3.4033203125
0.131,4.8046875,-4.5244140625,-1.9619140625
0.1315,4.6845703125,-5.525390625,-1.0009765625
0.132,4.4443359375,-6.166015625,-0.3203125
0.1325,3.4033203125,-6.2060546875,0.6806640625
0.133,1.9619140625,-6.166015625,2.0419921875
0.1335,0.48046875,-6.24609375,3.6435546875
0.134,-0.80078125,-6.2861328125,4.9248046875
0.1345,-1.4013671875,-6.486328125,5.765625
0.135,-2.162109375,-6.1259765625,6.2861328125
0.1355,-3.2431640625,-5.0849609375,6.5263671875
0.136,-4.6044921875,-3.5634765625,6.6064453125
0.1365,-5.765625,-2.0419921875,6.5263671875
0.137,-6.40625,-1.0009765625,6.486328125
0.1375,-6.56640625,-0.3203125,6.3662109375
0.138,-6.166015625,0.640625,5.4453125
0.1385,-5.765625,1.841796875,4.1240234375
0.139,-5.4453125,3.203125,2.6025390625
0.1395,-5.125,4.484375,1.2412109375
0.14,-4.9248046875,5.365234375,0.400390625
0.1405,-4.404296875,5.7255859375,-0.400390625
0.141,-3.3232421875,5.685546875,-1.361328125
0.1415,-1.681640625,5.6455078125,-2.9228515625
0.142,-0.240234375,5.685546875,-4.4443359375
0.1425,0.7607421875,5.765625,-5.525390625
0.143,1.361328125,5.8857421875,-6.326171875
0.1435,2.2421875,5.125,-6.6064453125
0.144,3.443359375,3.84375,-6.7666015625
0.1445,4.7646484375,2.2822265625,-6.88671875
0.145,5.765625,0.80078125,-6.7265625
0.1455,6.24609375,-0.2001953125,-6.7265625
0.146,6.24609375,-0.80078125,-6.3662109375
0.1465,5.8056640625,-1.7216796875,-5.3251953125
0.147,5.365234375,-3.0830078125,-3.7236328125
0.1475,4.96484375,-4.484375,-2.2421875
0.148,4.724609375,-5.60546875,-1.041015625
0.1485,4.484375,-6.2861328125,-0.3203125
0.149,3.68359375,-6.4462890625,0.6005859375
0.1495,2.482421875,-6.40625,1.681640625
0.15,0.80078125,-6.3662109375,3.3232421875
0.1505,-0.6806640625,-6.3662109375,4.8046875
0.151,-1.44140625,-6.486328125,5.7255859375
0.1515,-2.001953125,-6.4462890625,6.3662109375
0.152,-3.0029296875,-5.525390625,6.6064453125
0.1525,-4.2841796875,-4.0439453125,6.646484375
0.153,-5.4453125,-2.5625,6.646484375
0.1535,-6.326171875,-1.28125,6.56640625
0.154,-6.6064453125,-0.5205078125,6.486328125
0.1545,-6.40625,0.3603515625,5.845703125
0.155,-5.9658203125,1.28125,4.8046875
0.1555,-5.525390625,2.6826171875,3.2431640625
0.156,-5.2451171875,4.083984375,1.7216796875
0.1565,-5.0849609375,5.0849609375,0.720703125
0.157,-4.7646484375,5.685546875,0.0400390625
0.1575,-3.8037109375,5.685546875,-0.9208984375
0.158,-2.3623046875,5.60546875,-2.2021484375
0.1585,-0.9208984375,5.685546875,-3.7236328125
0.159,0.48046875,5.685546875,-5.0849609375
0.1595,1.0810546875,5.8857421875,-5.9658203125
0.16,1.76171875,5.5654296875,-6.4462890625
0.1605,2.8427734375,4.484375,-6.7265625
0.161,4.1640625,2.9228515625,-6.806640625
0.1615,5.3251953125,1.4013671875,-6.7666015625
0.162,6.0458984375,0.3603515625,-6.7265625
0.1625,6.24609375,-0.400390625,-6.646484375
0.163,5.92578125,-1.2412109375,-5.765625
0.1635,5.4853515625,-2.3623046875,-4.5244140625
0.164,5.1650390625,-3.8037109375,-2.962890625
0.1645,4.884765625,-5.125,-1.5615234375
0.165,4.724609375,-6.0458984375,-0.6806640625
0.1655,4.2041015625,-6.4462890625,0.16015625
0.166,3.123046875,-6.40625,1.12109375
0.1665,1.4814453125,-6.40625,2.6826171875
0.167,-0.16015625,-6.40625,4.32421875
0.1675,-1.12109375,-6.486328125,5.4052734375
0.168,-1.7216796875,-6.646484375,6.24609375
0.1685,-2.6025390625,-5.92578125,6.5263671875
0.169,-3.8037109375,-4.6845703125,6.6865234375
0.1695,-5.125,-3.203125,6.7265625
0.17,-6.1259765625,-1.6015625,6.6865234375
0.1705,-6.646484375,-0.6806640625,6.6064453125
0.171,-6.6064453125,0.1201171875,6.2060546875
0.1715,-6.166015625,0.9609375,5.2451171875
0.172,-5.765625,2.322265625,3.68359375
0.1725,-5.365234375,3.68359375,2.162109375
0.173,-5.125,4.8447265625,0.9609375
0.1735,-4.884765625,5.60546875,0.16015625
0.174,-4.083984375,5.7255859375,-0.6806640625
0.1745,-2.8828125,5.685546875,-1.8017578125
0.175,-1.28125,5.685546875,-3.36328125
0.1755,0.2802734375,5.6455078125,-4.8447265625
0.176,0.9609375,5.8056640625,-5.765625
0.1765,1.5615234375,5.7255859375,-6.4462890625
0.177,2.5224609375,4.8046875,-6.646484375
0.1775,3.84375,3.3232421875,-6.7265625
0.178,4.96484375,1.921875,-6.7265625
0.1785,5.8056640625,0.6005859375,-6.6064453125
0.179,6.166015625,-0.2001953125,-6.56640625
0.1795,5.9658203125,-0.9609375,-6.005859375
0.18,5.5654296875,-1.841796875,-5.0048828125
0.1805,5.125,-3.203125,-3.4833984375
0.181,4.8046875,-4.5244140625,-1.9619140625
0.1815,4.6044921875,-5.5654296875,-1.0009765625
0.182,4.404296875,-6.166015625,-0.3203125
0.1825,3.443359375,-6.2060546875,0.640625
0.183,2.1220703125,-6.166015625,1.841796875
0.1835,0.6005859375,-6.2060546875,3.36328125
0.184,-0.6806640625,-6.24609375,4.724609375
0.1845,-1.3212890625,-6.486328125,5.60546875
0.185,-1.9619140625,-6.24609375,6.0859375
0.1855,-2.9228515625,-5.3251953125,6.326171875
0.186,-4.2041015625,-3.84375,6.40625
0.1865,-5.3251953125,-2.3623046875,6.40625
0.187,-6.0859375,-1.3212890625,6.40625
0.1875,-6.3662109375,-0.6806640625,6.3662109375
0.188,-6.0458984375,0.2001953125,5.6455078125
0.1885,-5.6455078125,1.201171875,4.484375
0.189,-5.3251953125,2.5224609375,3.123046875
0.1895,-5.125,3.84375,1.76171875
0.19,-5.0048828125,4.8046875,0.9208984375
0.1905,-4.6044921875,5.28515625,0.2001953125
0.191,-3.7236328125,5.365234375,-0.7607421875
0.1915,-2.2822265625,5.3251953125,-2.162109375
0.192,-0.880859375,5.4052734375,-3.603515625
0.1925,0.16015625,5.60546875,-4.7646484375
0.193,0.80078125,5.765625,-5.685546875
0.1935,1.5615234375,5.2451171875,-6.0859375
0.194,2.6826171875,4.2041015625,-6.2861328125
0.1945,3.923828125,2.8427734375,-6.40625
0.195,5.0048828125,1.44140625,-6.40625
0.1955,5.6455078125,0.6005859375,-6.486328125
0.196,5.7255859375,0.0,-6.326171875
0.1965,5.4453125,-1.0009765625,-5.4853515625
0.197,5.0849609375,-2.162109375,-4.2041015625
0.1975,4.8046875,-3.4833984375,-2.8427734375
0.198,4.6845703125,-4.64453125,-1.7216796875
0.1985,4.564453125,-5.4853515625,-1.0009765625
0.199,3.9638671875,-5.765625,-0.2001953125
0.1995,2.9228515625,-5.8056640625,0.8408203125
0.2,1.5615234375,-5.8857421875,2.2822265625
0.2005,0.2001953125,-6.005859375,3.68359375
0.201,-0.640625,-6.2861328125,4.724609375
0.2015,-1.2412109375,-6.40625,5.4453125
0.202,-2.08203125,-5.6455078125,5.8056640625
0.2025,-3.2431640625,-4.484375,5.9658203125
0.203,-4.3642578125,-3.1630859375,6.0458984375
0.2035,-5.3251953125,-1.9619140625,6.1259765625
0.204,-5.8056640625,-1.28125,6.24609375
0.2045,-5.765625,-0.6005859375,5.8056640625
0.205,-5.4853515625,0.2802734375,5.0048828125
0.2055,-5.205078125,1.44140625,3.8037109375
0.206,-5.0048828125,2.802734375,2.482421875
0.2065,-4.9248046875,3.84375,1.5615234375
0.207,-4.8447265625,4.6044921875,0.880859375
0.2075,-4.1240234375,4.8046875,0.1201171875
0.208,-3.0029296875,4.884765625,-1.041015625
0.2085,-1.8017578125,5.0048828125,-2.40234375
0.209,-0.640625,5.1650390625,-3.7236328125
0.2095,0.0400390625,5.4853515625,-4.724609375
0.21,0.720703125,5.4453125,-5.3251953125
0.2105,1.6015625,4.8046875,-5.7255859375
0.211,2.8427734375,3.5634765625,-5.92578125
0.2115,3.9638671875,2.2822265625,-6.005859375
0.212,4.8046875,1.3212890625,-6.166015625
0.2125,5.28515625,0.6806640625,-6.326171875
0.213,5.125,0.0,-5.765625
0.2135,4.9248046875,-1.041015625,-4.884765625
0.214,4.724609375,-2.2021484375,-3.7236328125
0.2145,4.564453125,-3.4833984375,-2.5625
0.215,4.564453125,-4.5244140625,-1.7216796875
0.2155,4.404296875,-5.125,-1.041015625
0.216,3.6435546875,-5.3251953125,-0.240234375
0.2165,2.4423828125,-5.4853515625,1.0810546875
0.217,1.1611328125,-5.6455078125,2.4423828125
0.2175,0.2802734375,-5.92578125,3.603515625
0.218,-0.4404296875,-6.24609375,4.6044921875
0.2185,-1.1611328125,-5.92578125,5.0849609375
0.219,-2.1220703125,-5.125,5.4052734375
0.2195,-3.283203125,-4.00390625,5.6455078125
0.22,-4.404296875,-2.7626953125,5.7255859375
0.2205,-5.125,-1.9619140625,6.005859375
0.221,-5.4453125,-1.3212890625,5.92578125
0.2215,-5.28515625,-0.640625,5.365234375
0.222,-5.044921875,0.48046875,4.404296875
0.2225,-4.884765625,1.6416015625,3.2431640625
0.223,-4.8447265625,2.8427734375,2.2822265625
0.2235,-4.884765625,3.8037109375,1.5615234375
0.224,-4.484375,4.2041015625,0.880859375
0.2245,-3.7236328125,4.4443359375,0.0
0.225,-2.642578125,4.6044921875,-1.3212890625
0.2255,-1.4814453125,4.8046875,-2.6826171875
0.226,-0.7607421875,5.2451171875,-3.7236328125
0.2265,0.0,5.4853515625,-4.64453125
0.227,0.80078125,5.0849609375,-5.0849609375
0.2275,1.8818359375,4.1240234375,-5.4052734375
0.228,3.0029296875,3.04296875,-5.60546875
0.2285,4.0439453125,1.9619140625,-5.845703125
