wavelength,x,y,z
0.0,5.685546875,0.3603515625,-6.4462890625
0.0005,5.685546875,-0.6005859375,-6.0458984375
0.001,5.4853515625,-1.6416015625,-5.0849609375
0.0015,5.2451171875,-3.04296875,-3.763671875
0.002,5.0849609375,-4.3642578125,-2.322265625
0.0025,4.7646484375,-5.2451171875,-1.3212890625
0.003,4.404296875,-5.8056640625,-0.560546875
0.0035,3.5634765625,-6.1259765625,0.48046875
0.004,2.322265625,-6.2861328125,1.8017578125
0.0045,0.8408203125,-6.4462890625,3.4833984375
0.005,-0.400390625,-6.4462890625,4.6044921875
0.0055,-1.041015625,-6.5263671875,5.4453125
0.006,-1.8818359375,-6.2861328125,6.0859375
0.0065,-3.04296875,-5.3251953125,6.486328125
0.007,-4.4443359375,-3.84375,6.6865234375
0.0075,-5.60546875,-2.2822265625,6.6865234375
0.008,-6.1259765625,-1.1611328125,6.4462890625
0.0085,-6.2861328125,-0.5205078125,6.2060546875
0.009,-6.1259765625,0.4404296875,5.4853515625
0.0095,-5.8857421875,1.6416015625,4.32421875
0.01,-5.6455078125,3.123046875,2.8828125
0.0105,-5.28515625,4.32421875,1.5615234375
0.011,-4.96484375,5.044921875,0.640625
0.0115,-4.404296875,5.4453125,-0.2001953125
0.012,-3.4833984375,5.60546875,-1.201171875
0.0125,-2.08203125,5.765625,-2.72265625
0.013,-0.6005859375,5.845703125,-4.244140625
0.0135,0.400390625,5.8857421875,-5.28515625
0.014,1.041015625,5.8857421875,-5.9658203125
0.0145,1.9619140625,5.365234375,-6.5263671875
0.015,3.3232421875,4.1240234375,-6.8466796875
0.0155,4.6845703125,2.6025390625,-7.0068359375
0.016,5.6455078125,1.12109375,-6.806640625
0.0165,6.0458984375,0.1201171875,-6.646484375
0.017,6.0859375,-0.6806640625,-6.2861328125
0.0175,5.845703125,-1.6416015625,-5.4853515625
0.018,5.5654296875,-2.9228515625,-4.083984375
0.0185,5.2451171875,-4.404296875,-2.5625
0.019,4.8447265625,-5.4453125,-1.3212890625
0.0195,4.484375,-6.0859375,-0.5205078125
0.02,3.8037109375,-6.3662109375,0.48046875
0.0205,2.6025390625,-6.4462890625,1.6416015625
0.021,1.12109375,-6.6064453125,3.2431640625
0.0215,-0.400390625,-6.56640625,4.64453125
0.022,-1.1611328125,-6.6064453125,5.525390625
0.0225,-1.8017578125,-6.486328125,6.166015625
0.023,-2.8427734375,-5.765625,6.646484375
0.0235,-4.2041015625,-4.3642578125,6.88671875
0.024,-5.4853515625,-2.72265625,6.88671875
0.0245,-6.24609375,-1.4013671875,6.646484375
0.025,-6.486328125,-0.640625,6.40625
0.0255,-6.40625,0.240234375,5.8056640625
0.026,-6.1259765625,1.4013671875,4.8046875
0.0265,-5.8056640625,2.7626953125,3.443359375
0.027,-5.4853515625,4.1240234375,1.921875
0.0275,-5.125,4.96484375,0.880859375
0.028,-4.64453125,5.4453125,0.1201171875
0.0285,-3.8837890625,5.7255859375,-0.9208984375
0.029,-2.5224609375,5.765625,-2.2421875
0.0295,-1.041015625,5.92578125,-3.84375
0.03,0.240234375,5.8857421875,-5.044921875
0.0305,0.880859375,5.9658203125,-5.845703125
0.031,1.6416015625,5.685546875,-6.4462890625
0.0315,2.8427734375,4.724609375,-6.8466796875
0.032,4.2041015625,3.203125,-7.046875
0.0325,5.4052734375,1.5615234375,-6.966796875
0.033,5.9658203125,0.400390625,-6.7265625
0.0335,6.0859375,-0.400390625,-6.5263671875
0.034,5.9658203125,-1.2412109375,-5.8056640625
0.0345,5.685546875,-2.4423828125,-4.6044921875
0.035,5.4052734375,-3.84375,-3.1630859375
0.0355,5.0048828125,-5.125,-1.7216796875
0.036,4.64453125,-5.845703125,-0.80078125
0.0365,4.1240234375,-6.2861328125,0.080078125
0.037,3.203125,-6.486328125,1.12109375
0.0375,1.76171875,-6.56640625,2.5625
0.038,0.16015625,-6.6064453125,4.2041015625
0.0385,-0.9208984375,-6.6064453125,5.2451171875
0.039,-1.521484375,-6.646484375,6.005859375
0.0395,-2.4423828125,-6.1259765625,6.5263671875
0.04,-3.7236328125,-4.884765625,6.8466796875
0.0405,-5.0849609375,-3.4033203125,6.966796875
0.041,-6.0859375,-1.8818359375,6.7666015625
0.0415,-6.486328125,-0.9609375,6.5263671875
0.042,-6.486328125,0.0,6.2060546875
0.0425,-6.2861328125,0.880859375,5.4052734375
0.043,-6.005859375,2.2421875,4.00390625
0.0435,-5.7255859375,3.763671875,2.4423828125
0.044,-5.3251953125,4.8046875,1.201171875
0.0445,-4.9248046875,5.4453125,0.3203125
0.045,-4.2041015625,5.7255859375,-0.6005859375
0.0455,-3.04296875,5.8857421875,-1.841796875
0.046,-1.6015625,6.0458984375,-3.4833984375
0.0465,0.0,6.005859375,-4.884765625
0.047,0.7607421875,6.0458984375,-5.765625
0.0475,1.44140625,5.8857421875,-6.40625
0.048,2.5224609375,5.0849609375,-6.88671875
0.0485,3.9638671875,3.5634765625,-7.126953125
0.049,5.2451171875,1.9619140625,-7.126953125
0.0495,5.9658203125,0.6005859375,-6.8466796875
0.05,6.2060546875,-0.3203125,-6.6064453125
0.0505,6.1259765625,-1.12109375,-6.0458984375
0.051,5.8857421875,-2.2021484375,-5.0048828125
0.0515,5.525390625,-3.5634765625,-3.5634765625
0.052,5.125,-4.96484375,-2.001953125
0.0525,4.724609375,-5.765625,-0.9208984375
0.053,4.2841796875,-6.2861328125,0.0
0.0535,3.443359375,-6.4462890625,0.880859375
0.054,2.08203125,-6.56640625,2.2421875
0.0545,0.560546875,-6.6064453125,3.84375
0.055,-0.80078125,-6.486328125,5.0048828125
0.0555,-1.4013671875,-6.56640625,5.765625
0.056,-2.1220703125,-6.2861328125,6.326171875
0.0565,-3.2431640625,-5.4052734375,6.6865234375
0.057,-4.564453125,-3.8837890625,6.8466796875
0.0575,-5.765625,-2.322265625,6.6865234375
0.058,-6.2861328125,-1.1611328125,6.486328125
0.0585,-6.3662109375,-0.4404296875,6.24609375
0.059,-6.24609375,0.48046875,5.60546875
0.0595,-5.92578125,1.5615234375,4.484375
0.06,-5.6455078125,2.9228515625,3.0830078125
0.0605,-5.28515625,4.1240234375,1.76171875
0.061,-4.96484375,4.8447265625,0.80078125
0.0615,-4.5244140625,5.3251953125,0.080078125
0.062,-3.68359375,5.5654296875,-0.9609375
0.0625,-2.3623046875,5.685546875,-2.2822265625
0.063,-0.9208984375,5.7255859375,-3.84375
0.0635,0.16015625,5.8056640625,-4.884765625
0.064,0.80078125,5.8857421875,-5.7255859375
0.0645,1.6416015625,5.4853515625,-6.2861328125
0.065,2.8427734375,4.4443359375,-6.56640625
0.0655,4.1240234375,3.0029296875,-6.7666015625
0.066,5.2451171875,1.5615234375,-6.6865234375
0.0665,5.685546875,0.6005859375,-6.56640625
0.067,5.845703125,-0.2001953125,-6.326171875
0.0675,5.7255859375,-1.0009765625,-5.685546875
0.068,5.4453125,-2.2421875,-4.5244140625
0.0685,5.205078125,-3.6435546875,-3.0830078125
0.069,4.9248046875,-4.8046875,-1.8818359375
0.0695,4.6044921875,-5.4853515625,-1.0009765625
0.07,4.083984375,-5.92578125,-0.240234375
0.0705,3.0830078125,-6.1259765625,0.9609375
0.071,1.76171875,-6.2861328125,2.40234375
0.0715,0.400390625,-6.2861328125,3.8037109375
0.072,-0.5205078125,-6.40625,4.8046875
0.0725,-1.1611328125,-6.486328125,5.4853515625
0.073,-2.08203125,-5.9658203125,6.0458984375
0.0735,-3.36328125,-4.8447265625,6.326171875
0.074,-4.64453125,-3.283203125,6.4462890625
0.0745,-5.4853515625,-2.001953125,6.2861328125
0.075,-5.845703125,-1.28125,6.24609375
0.0755,-5.92578125,-0.5205078125,5.845703125
0.076,-5.765625,0.48046875,5.0849609375
0.0765,-5.525390625,1.7216796875,3.923828125
0.077,-5.3251953125,3.04296875,2.6025390625
0.0775,-5.0849609375,3.9638671875,1.5615234375
0.078,-4.8046875,4.6044921875,0.880859375
0.0785,-4.1640625,5.0048828125,0.0
0.079,-3.1630859375,5.205078125,-1.201171875
0.0795,-1.921875,5.4453125,-2.642578125
0.08,-0.7607421875,5.4853515625,-3.8837890625
0.0805,0.0,5.685546875,-4.7646484375
0.081,0.7607421875,5.60546875,-5.525390625
0.0815,1.7216796875,4.96484375,-6.0458984375
0.082,3.04296875,3.8037109375,-6.2861328125
0.0825,4.2041015625,2.40234375,-6.3662109375
0.083,4.96484375,1.28125,-6.2861328125
0.0835,5.3251953125,0.6005859375,-6.2861328125
0.084,5.365234375,-0.240234375,-5.845703125
0.0845,5.205078125,-1.2412109375,-5.044921875
0.085,5.0849609375,-2.4423828125,-3.8837890625
0.0855,4.8447265625,-3.7236328125,-2.642578125
0.086,4.64453125,-4.564453125,-1.76171875
0.0865,4.3642578125,-5.205078125,-1.0009765625
0.087,3.7236328125,-5.60546875,-0.16015625
0.0875,2.6025390625,-5.845703125,1.201171875
0.088,1.28125,-5.9658203125,2.642578125
0.0885,0.3203125,-6.166015625,3.8037109375
0.089,-0.3603515625,-6.4462890625,4.64453125
0.0895,-1.2412109375,-6.24609375,5.3251953125
0.09,-2.2822265625,-5.4052734375,5.765625
0.0905,-3.5634765625,-4.1640625,6.0458984375
0.091,-4.64453125,-2.8427734375,6.0859375
0.0915,-5.28515625,-1.9619140625,6.0859375
0.092,-5.5654296875,-1.2412109375,6.005859375
0.0925,-5.60546875,-0.5205078125,5.525390625
0.093,-5.4453125,0.640625,4.6044921875
0.0935,-5.28515625,1.921875,3.443359375
0.094,-5.125,3.04296875,2.3623046875
0.0945,-4.96484375,3.8837890625,1.5615234375
0.095,-4.564453125,4.4443359375,0.80078125
0.0955,-3.8037109375,4.8046875,-0.3203125
0.096,-2.7626953125,5.0849609375,-1.5615234375
0.0965,-1.521484375,5.205078125,-2.9228515625
0.097,-0.7607421875,5.4453125,-3.923828125
0.0975,0.0,5.60546875,-4.8447265625
0.098,0.9208984375,5.365234375,-5.4453125
0.0985,2.1220703125,4.404296875,-5.845703125
0.099,3.4033203125,3.123046875,-6.0859375
0.0995,4.32421875,1.921875,-6.0859375
0.1,4.8447265625,1.1611328125,-6.166015625
0.1005,5.0849609375,0.48046875,-6.005859375
0.101,5.0849609375,-0.5205078125,-5.4052734375
0.1015,4.96484375,-1.6015625,-4.4443359375
0.102,4.8046875,-2.8828125,-3.283203125
0.1025,4.64453125,-3.8837890625,-2.2822265625
0.103,4.484375,-4.64453125,-1.6015625
0.1035,4.0439453125,-5.125,-0.80078125
0.104,3.1630859375,-5.4453125,0.3603515625
0.1045,2.0419921875,-5.765625,1.76171875
0.105,0.9609375,-5.92578125,2.9228515625
0.1055,0.2802734375,-6.2861328125,3.8837890625
0.106,-0.560546875,-6.2861328125,4.7646484375
0.1065,-1.521484375,-5.765625,5.3251953125
0.107,-2.72265625,-4.7646484375,5.685546875
0.1075,-3.923828125,-3.4833984375,5.845703125
0.108,-4.7646484375,-2.40234375,5.8857421875
0.1085,-5.205078125,-1.76171875,5.9658203125
0.109,-5.365234375,-1.0009765625,5.685546875
0.1095,-5.28515625,0.0,4.96484375
0.11,-5.28515625,1.201171875,3.9638671875
0.1105,-5.125,2.40234375,2.8828125
0.111,-5.0048828125,3.3232421875,2.0419921875
0.1115,-4.8046875,4.00390625,1.3212890625
0.112,-4.244140625,4.484375,0.48046875
0.1125,-3.283203125,4.8046875,-0.80078125
0.113,-2.162109375,5.0849609375,-2.2021484375
0.1135,-1.28125,5.28515625,-3.36328125
0.114,-0.6005859375,5.6455078125,-4.244140625
0.1145,0.3203125,5.525390625,-5.044921875
0.115,1.521484375,4.8046875,-5.525390625
0.1155,2.7626953125,3.68359375,-5.8857421875
0.116,3.8837890625,2.40234375,-6.005859375
0.1165,4.6044921875,1.521484375,-6.1259765625
0.117,4.96484375,0.8408203125,-6.1259765625
0.1175,5.0849609375,0.080078125,-5.7255859375
0.118,4.96484375,-1.0810546875,-4.8447265625
0.1185,4.9248046875,-2.40234375,-3.763671875
0.119,4.7646484375,-3.5634765625,-2.642578125
0.1195,4.6044921875,-4.3642578125,-1.8818359375
0.12,4.2841796875,-5.0048828125,-1.12109375
0.1205,3.5234375,-5.4052734375,0.0
0.121,2.482421875,-5.7255859375,1.28125
0.1215,1.2412109375,-5.92578125,2.642578125
0.122,0.48046875,-6.1259765625,3.68359375
0.1225,-0.3203125,-6.2861328125,4.564453125
0.123,-1.2412109375,-5.9658203125,5.205078125
0.1235,-2.4423828125,-5.0048828125,5.685546875
0.124,-3.7236328125,-3.763671875,5.8857421875
0.1245,-4.6845703125,-2.5625,5.8857421875
0.125,-5.205078125,-1.8017578125,6.005859375
0.1255,-5.4052734375,-1.0810546875,5.765625
0.126,-5.4052734375,-0.240234375,5.125
0.1265,-5.28515625,1.0009765625,4.1640625
0.127,-5.1650390625,2.322265625,3.0029296875
0.1275,-5.0048828125,3.3232421875,2.0419921875
0.128,-4.8447265625,4.083984375,1.28125
0.1285,-4.3642578125,4.484375,0.48046875
0.129,-3.4033203125,4.8046875,-0.720703125
0.1295,-2.322265625,5.125,-2.1220703125
0.13,-1.2412109375,5.3251953125,-3.36328125
0.1305,-0.5205078125,5.60546875,-4.3642578125
0.131,0.3603515625,5.60546875,-5.125
0.1315,1.4013671875,5.0048828125,-5.7255859375
0.132,2.72265625,3.84375,-6.0458984375
0.1325,3.9638671875,2.482421875,-6.166015625
0.133,4.7646484375,1.4013671875,-6.166015625
0.1335,5.125,0.6806640625,-6.166015625
0.134,5.205078125,0.0,-5.765625
0.1345,5.0849609375,-1.1611328125,-4.9248046875
0.135,5.0048828125,-2.4423828125,-3.84375
0.1355,4.8046875,-3.7236328125,-2.6025390625
0.136,4.6044921875,-4.564453125,-1.76171875
0.1365,4.32421875,-5.205078125,-1.0009765625
0.137,3.6435546875,-5.60546875,0.0
0.1375,2.482421875,-5.845703125,1.28125
0.138,1.201171875,-5.9658203125,2.802734375
0.1385,0.2802734375,-6.1259765625,3.84375
0.139,-0.5205078125,-6.3662109375,4.7646484375
0.1395,-1.3212890625,-6.1259765625,5.4453125
0.14,-2.5224609375,-5.1650390625,5.8857421875
0.1405,-3.84375,-3.8837890625,6.1259765625
0.141,-4.884765625,-2.5625,6.0859375
0.1415,-5.4453125,-1.6416015625,6.1259765625
0.142,-5.6455078125,-0.9609375,5.8857421875
0.1425,-5.6455078125,-0.16015625,5.365234375
0.143,-5.4453125,1.0810546875,4.32421875
0.1435,-5.3251953125,2.482421875,3.0830078125
0.144,-5.125,3.5234375,1.9619140625
0.1445,-4.884765625,4.2841796875,1.201171875
0.145,-4.4443359375,4.724609375,0.3603515625
0.1455,-3.5634765625,5.0048828125,-0.80078125
0.146,-2.3623046875,5.3251953125,-2.1220703125
0.1465,-1.0810546875,5.4453125,-3.5634765625
0.147,-0.3203125,5.685546875,-4.5244140625
0.1475,0.48046875,5.7255859375,-5.3251953125
0.148,1.4814453125,5.2451171875,-5.92578125
0.1485,2.8427734375,4.0439453125,-6.2861328125
0.149,4.1240234375,2.642578125,-6.486328125
0.1495,5.0048828125,1.4013671875,-6.40625
0.15,5.4453125,0.6005859375,-6.40625
0.1505,5.525390625,-0.2802734375,-6.0458984375
0.151,5.4052734375,-1.28125,-5.205078125
0.1515,5.2451171875,-2.5625,-4.00390625
0.152,5.044921875,-3.923828125,-2.642578125
0.1525,4.8046875,-4.96484375,-1.6015625
0.153,4.484375,-5.6455078125,-0.80078125
0.1535,3.763671875,-6.005859375,0.1201171875
0.154,2.5625,-6.1259765625,1.44140625
0.1545,1.201171875,-6.326171875,3.04296875
0.155,0.0,-6.3662109375,4.2841796875
0.1555,-0.80078125,-6.56640625,5.1650390625
0.156,-1.6015625,-6.326171875,5.8857421875
0.1565,-2.7626953125,-5.4853515625,6.3662109375
0.157,-4.1640625,-4.00390625,6.6064453125
0.1575,-5.365234375,-2.5224609375,6.56640625
0.158,-6.0458984375,-1.361328125,6.40625
0.1585,-6.24609375,-0.640625,6.2060546875
0.159,-6.1259765625,0.3603515625,5.5654296875
0.1595,-5.845703125,1.5615234375,4.404296875
0.16,-5.6455078125,3.0029296875,3.04296875
0.1605,-5.365234375,4.1240234375,1.7216796875
0.161,-5.0048828125,4.9248046875,0.7607421875
0.1615,-4.5244140625,5.365234375,0.0
0.162,-3.5634765625,5.60546875,-1.1611328125
0.1625,-2.08203125,5.7255859375,-2.6826171875
0.163,-0.640625,5.845703125,-4.2041015625
0.1635,0.3603515625,5.8857421875,-5.205078125
0.164,1.0009765625,5.8857421875,-5.9658203125
0.1645,2.001953125,5.3251953125,-6.56640625
0.165,3.3232421875,4.083984375,-6.88671875
0.1655,4.64453125,2.5224609375,-7.0068359375
0.166,5.60546875,1.0810546875,-6.806640625
0.1665,6.0458984375,0.1201171875,-6.6064453125
0.167,6.0859375,-0.720703125,-6.24609375
0.1675,5.8857421875,-1.681640625,-5.4052734375
0.168,5.5654296875,-3.04296875,-4.00390625
0.1685,5.2451171875,-4.5244140625,-2.5224609375
0.169,4.8447265625,-5.525390625,-1.28125
0.1695,4.404296875,-6.1259765625,-0.48046875
0.17,3.7236328125,-6.40625,0.5205078125
0.1705,2.5625,-6.5263671875,1.7216796875
0.171,1.041015625,-6.6064453125,3.3232421875
0.1715,-0.48046875,-6.56640625,4.724609375
0.172,-1.2412109375,-6.56640625,5.5654296875
0.1725,-1.8818359375,-6.486328125,6.24609375
0.173,-2.9228515625,-5.7255859375,6.6865234375
0.1735,-4.32421875,-4.2841796875,6.88671875
0.174,-5.525390625,-2.72265625,6.88671875
0.1745,-6.2861328125,-1.361328125,6.646484375
0.175,-6.486328125,-0.560546875,6.40625
0.1755,-6.4462890625,0.3203125,5.8857421875
0.176,-6.1259765625,1.4013671875,4.8447265625
0.1765,-5.8056640625,2.7626953125,3.36328125
0.177,-5.4853515625,4.083984375,1.9619140625
0.1775,-5.125,4.9248046875,0.8408203125
0.178,-4.6845703125,5.4853515625,0.1201171875
0.1785,-3.8837890625,5.7255859375,-0.9208984375
0.179,-2.5625,5.845703125,-2.2421875
0.1795,-1.12109375,5.9658203125,-3.84375
0.18,0.2001953125,5.8857421875,-5.0048828125
0.1805,0.880859375,5.9658203125,-5.8056640625
0.181,1.681640625,5.7255859375,-6.4462890625
0.1815,2.8427734375,4.7646484375,-6.88671875
0.182,4.2841796875,3.203125,-7.046875
0.1825,5.4052734375,1.6416015625,-6.966796875
0.183,5.9658203125,0.48046875,-6.7265625
0.1835,6.1259765625,-0.3603515625,-6.5263671875
0.184,6.005859375,-1.2412109375,-5.845703125
0.1845,5.7255859375,-2.4423828125,-4.64453125
0.185,5.4052734375,-3.8837890625,-3.1630859375
0.1855,5.044921875,-5.125,-1.8017578125
0.186,4.6845703125,-5.8056640625,-0.8408203125
0.1865,4.1640625,-6.2861328125,0.080078125
0.187,3.2431640625,-6.486328125,1.0810546875
0.1875,1.76171875,-6.6064453125,2.5625
0.188,0.240234375,-6.6064453125,4.1640625
0.1885,-0.8408203125,-6.6064453125,5.1650390625
0.189,-1.44140625,-6.646484375,5.92578125
0.1895,-2.3623046875,-6.166015625,6.5263671875
0.19,-3.7236328125,-4.9248046875,6.806640625
0.1905,-5.0048828125,-3.4033203125,6.88671875
0.191,-6.005859375,-1.8818359375,6.7265625
0.1915,-6.4462890625,-0.9208984375,6.5263671875
0.192,-6.486328125,0.0,6.166015625
0.1925,-6.3662109375,0.8408203125,5.4052734375
0.193,-5.9658203125,2.162109375,4.00390625
0.1935,-5.7255859375,3.603515625,2.5224609375
0.194,-5.28515625,4.724609375,1.28125
0.1945,-4.9248046875,5.365234375,0.4404296875
0.195,-4.244140625,5.7255859375,-0.560546875
0.1955,-3.123046875,5.845703125,-1.76171875
0.196,-1.6416015625,6.0458984375,-3.3232421875
0.1965,-0.2001953125,5.9658203125,-4.7646484375
0.197,0.6806640625,6.005859375,-5.6455078125
0.1975,1.361328125,5.92578125,-6.3662109375
0.198,2.4423828125,5.205078125,-6.88671875
0.1985,3.84375,3.763671875,-7.0869140625
0.199,5.125,2.162109375,-7.0869140625
0.1995,5.92578125,0.7607421875,-6.8466796875
0.2,6.2060546875,-0.2001953125,-6.646484375
0.2005,6.166015625,-1.041015625,-6.1259765625
0.201,5.8857421875,-2.1220703125,-5.125
0.2015,5.525390625,-3.5634765625,-3.68359375
0.202,5.1650390625,-4.8447265625,-2.08203125
0.2025,4.7646484375,-5.765625,-1.0009765625
0.203,4.32421875,-6.2861328125,-0.2001953125
0.2035,3.5234375,-6.486328125,0.80078125
0.204,2.162109375,-6.6064453125,2.2021484375
0.2045,0.6005859375,-6.646484375,3.8037109375
0.205,-0.720703125,-6.5263671875,4.96484375
0.2055,-1.361328125,-6.6064453125,5.7255859375
0.206,-2.1220703125,-6.3662109375,6.3662109375
0.2065,-3.2431640625,-5.4052734375,6.7265625
0.207,-4.564453125,-3.8837890625,6.88671875
0.2075,-5.7255859375,-2.322265625,6.7666015625
0.208,-6.2861328125,-1.1611328125,6.5263671875
0.2085,-6.40625,-0.48046875,6.2861328125
0.209,-6.2861328125,0.4404296875,5.60546875
0.2095,-5.9658203125,1.5615234375,4.484375
0.21,-5.6455078125,2.9228515625,3.0830078125
0.2105,-5.28515625,4.1240234375,1.76171875
0.211,-4.96484375,4.8447265625,0.8408203125
0.2115,-4.5244140625,5.365234375,0.080078125
0.212,-3.68359375,5.60546875,-0.9609375
0.2125,-2.3623046875,5.7255859375,-2.322265625
0.213,-0.9208984375,5.7255859375,-3.84375
0.2135,0.16015625,5.765625,-4.884765625
0.214,0.7607421875,5.8857421875,-5.6455078125
0.2145,1.6416015625,5.525390625,-6.2861328125
0.215,2.8427734375,4.484375,-6.6064453125
0.2155,4.1240234375,3.04296875,-6.7666015625
0.216,5.1650390625,1.6015625,-6.6865234375
0.2165,5.685546875,0.6005859375,-6.56640625
0.217,5.8056640625,-0.2001953125,-6.3662109375
0.2175,5.7255859375,-1.041015625,-5.765625
0.218,5.4853515625,-2.2021484375,-4.564453125
0.2185,5.2451171875,-3.603515625,-3.1630859375
0.219,4.884765625,-4.7646484375,-1.921875
0.2195,4.6044921875,-5.4853515625,-1.0810546875
0.22,4.1240234375,-5.92578125,-0.2802734375
0.2205,3.1630859375,-6.166015625,0.9208984375
0.221,1.76171875,-6.40625,2.40234375
0.2215,0.400390625,-6.3662109375,3.84375
0.222,-0.5205078125,-6.486328125,4.8046875
0.2225,-1.201171875,-6.5263671875,5.60546875
0.223,-2.1220703125,-6.0458984375,6.166015625
0.2235,-3.4833984375,-4.8046875,6.4462890625
0.224,-4.7646484375,-3.3232421875,6.56640625
0.2245,-5.6455078125,-2.0419921875,6.40625
0.225,-5.9658203125,-1.2412109375,6.326171875
0.2255,-6.0859375,-0.5205078125,5.92578125
0.226,-5.92578125,0.6005859375,5.125
0.2265,-5.6455078125,1.921875,3.8837890625
0.227,-5.4453125,3.203125,2.5224609375
0.2275,-5.125,4.1640625,1.521484375
0.228,-4.8447265625,4.8046875,0.720703125
0.2285,-4.1640625,5.1650390625,-0.2802734375
