wavelength,x,y,z
0.0,11.0908203125,12.171875,-22.9423828125
0.0005,5.8857421875,16.2958984375,-21.78125
0.001,0.9609375,19.21875,-19.939453125
0.0015,-3.7236328125,21.0205078125,-17.3369140625
0.002,-7.3671875,22.2216796875,-15.1748046875
0.0025,-10.490234375,22.0615234375,-12.171875
0.003,-13.93359375,21.62109375,-8.568359375
0.0035,-17.3369140625,20.4599609375,-4.2841796875
0.004,-20.259765625,18.2978515625,1.0810546875
0.0045,-21.9814453125,15.7353515625,5.205078125
0.005,-22.4619140625,13.0126953125,8.3681640625
0.0055,-22.8623046875,9.9697265625,11.8115234375
0.006,-22.1015625,5.1650390625,15.8154296875
0.0065,-20.900390625,1.12109375,18.8583984375
0.007,-18.6982421875,-3.1630859375,20.9404296875
0.0075,-16.6162109375,-7.0869140625,22.7021484375
0.008,-13.3330078125,-10.0498046875,22.662109375
0.0085,-9.9296875,-13.4130859375,22.5419921875
0.009,-4.884765625,-17.0966796875,21.4208984375
0.0095,0.640625,-20.01953125,19.138671875
0.01,4.8447265625,-21.5009765625,16.65625
0.0105,8.1279296875,-22.26171875,14.2939453125
0.011,11.451171875,-22.3017578125,11.37109375
0.0115,15.294921875,-21.3408203125,6.7265625
0.012,18.2578125,-20.01953125,2.6025390625
0.0125,20.900390625,-17.6572265625,-2.3623046875
0.013,22.421875,-15.2548828125,-6.2861328125
0.0135,22.5419921875,-12.1318359375,-9.5693359375
0.014,22.7822265625,-8.96875,-12.892578125
0.0145,21.9013671875,-4.1240234375,-16.9365234375
0.015,20.2998046875,0.3603515625,-19.8994140625
0.0155,17.8974609375,4.484375,-21.380859375
0.016,15.6552734375,7.84765625,-22.9423828125
0.0165,12.251953125,11.1708984375,-22.7822265625
0.017,7.6875,15.0146484375,-22.1416015625
0.0175,3.203125,18.09765625,-20.98046875
0.018,-2.4423828125,20.7802734375,-18.41796875
0.0185,-6.2861328125,22.1015625,-15.8955078125
0.019,-9.44921875,22.2216796875,-13.212890625
0.0195,-12.65234375,22.3818359375,-10.490234375
0.02,-16.81640625,21.0205078125,-5.1650390625
0.0205,-19.619140625,19.1787109375,-0.6005859375
0.021,-21.6611328125,16.6962890625,3.8037109375
0.0215,-22.9423828125,14.2138671875,7.607421875
0.022,-22.90234375,10.73046875,11.0107421875
0.0225,-22.7421875,7.046875,14.6943359375
0.023,-21.7412109375,2.6826171875,18.1376953125
0.0235,-19.7392578125,-2.2421875,20.98046875
0.024,-17.13671875,-6.1259765625,22.26171875
0.0245,-14.6142578125,-9.2490234375,22.982421875
0.025,-11.4912109375,-12.4521484375,23.142578125
0.0255,-5.8056640625,-16.6162109375,21.8212890625
0.026,-1.28125,-19.2587890625,20.099609375
0.0265,3.68359375,-21.380859375,17.5771484375
0.027,7.4072265625,-22.4619140625,15.21484375
0.0275,10.650390625,-22.1015625,11.8916015625
0.028,13.7734375,-21.9814453125,8.8486328125
0.0285,17.6171875,-20.66015625,3.84375
0.029,20.4599609375,-18.2978515625,-1.3212890625
0.0295,21.8212890625,-15.8955078125,-5.0849609375
0.03,22.7021484375,-13.3330078125,-8.5283203125
0.0305,22.58203125,-10.009765625,-11.69140625
0.031,21.9013671875,-5.365234375,-15.8955078125
0.0315,20.740234375,-1.521484375,-18.5380859375
0.032,18.6181640625,3.0029296875,-20.8203125
0.0325,16.1357421875,6.6865234375,-22.1015625
0.033,13.0126953125,9.76953125,-22.1015625
0.0335,10.0498046875,12.8525390625,-22.341796875
0.034,4.404296875,16.896484375,-20.900390625
0.0345,-0.640625,19.37890625,-18.73828125
0.035,-4.5244140625,20.8603515625,-16.49609375
0.0355,-7.927734375,21.78125,-14.333984375
0.036,-11.05078125,21.4609375,-11.05078125
0.0365,-14.494140625,20.7802734375,-7.0869140625
0.037,-17.6572265625,19.5390625,-2.8828125
0.0375,-20.1796875,17.056640625,2.08203125
0.038,-21.30078125,14.6943359375,5.5654296875
0.0385,-21.78125,11.931640625,8.8486328125
0.039,-21.94140625,9.0087890625,11.8916015625
0.0395,-21.0205078125,4.1240234375,15.9755859375
0.04,-19.4990234375,0.0400390625,18.5380859375
0.0405,-17.45703125,-3.763671875,20.33984375
0.041,-15.4150390625,-7.126953125,21.6611328125
0.0415,-12.0517578125,-10.1298828125,21.4208984375
0.042,-8.48828125,-13.453125,21.2607421875
0.0425,-3.68359375,-16.81640625,19.9794921875
0.043,1.6015625,-19.2587890625,17.4169921875
0.0435,4.96484375,-20.2998046875,15.4150390625
0.044,8.087890625,-20.98046875,13.1328125
0.0445,11.05078125,-20.9404296875,10.41015625
0.045,14.9345703125,-19.8994140625,5.60546875
0.0455,17.697265625,-18.4580078125,1.521484375
0.046,19.779296875,-16.2958984375,-2.72265625
0.0465,20.8203125,-13.9736328125,-6.005859375
0.047,20.9404296875,-10.970703125,-9.12890625
0.0475,21.0205078125,-7.8076171875,-12.412109375
0.048,20.2197265625,-3.5634765625,-15.9755859375
0.0485,18.3779296875,0.9208984375,-18.578125
0.049,16.2958984375,4.2841796875,-19.8994140625
0.0495,14.2138671875,7.447265625,-21.0205078125
0.05,11.0908203125,10.41015625,-20.98046875
0.0505,6.3662109375,14.25390625,-20.2197265625
0.051,2.162109375,17.13671875,-19.138671875
0.0515,-2.642578125,19.2587890625,-16.65625
0.052,-5.845703125,20.1796875,-14.6142578125
0.0525,-8.96875,20.419921875,-11.931640625
0.053,-11.8916015625,20.419921875,-9.2890625
0.0535,-15.6953125,19.21875,-4.4443359375
0.054,-18.3779296875,17.216796875,0.240234375
0.0545,-19.939453125,15.21484375,3.8037109375
0.055,-20.900390625,12.8525390625,7.046875
0.0555,-20.9404296875,9.76953125,10.2099609375
0.056,-20.5400390625,5.765625,13.853515625
0.0565,-19.7392578125,1.9619140625,16.9365234375
0.057,-17.77734375,-2.4423828125,19.298828125
0.0575,-15.53515625,-5.7255859375,20.3798828125
0.058,-13.1328125,-8.728515625,21.060546875
0.0585,-10.08984375,-11.7314453125,21.1005859375
0.059,-4.7646484375,-15.53515625,19.7392578125
0.0595,-0.16015625,-18.0576171875,17.9375
0.06,3.84375,-19.779296875,15.8955078125
0.0605,7.0068359375,-20.5,13.7734375
0.061,10.08984375,-20.5,10.73046875
0.0615,13.4130859375,-20.099609375,7.287109375
0.062,16.65625,-18.9384765625,2.9228515625
0.0625,19.138671875,-16.49609375,-1.841796875
0.063,20.1796875,-14.4140625,-4.96484375
0.0635,20.900390625,-11.8916015625,-8.16796875
0.064,20.8603515625,-8.8486328125,-11.2509765625
0.0645,20.0595703125,-4.404296875,-14.89453125
0.065,18.818359375,-0.5205078125,-17.6171875
0.0655,16.9365234375,3.443359375,-19.5791015625
0.066,14.6142578125,6.5263671875,-20.5
0.0665,11.6513671875,9.609375,-20.7001953125
0.067,8.2080078125,12.8525390625,-20.580078125
0.0675,3.283203125,16.2958984375,-19.298828125
0.068,-1.6416015625,18.5380859375,-16.8564453125
0.0685,-4.8447265625,19.7392578125,-15.0947265625
0.069,-7.8876953125,20.3798828125,-12.892578125
0.0695,-10.890625,20.1796875,-9.9697265625
0.07,-14.4541015625,19.2587890625,-5.765625
0.0705,-17.3369140625,17.8974609375,-1.521484375
0.071,-19.458984375,15.615234375,2.8828125
0.0715,-20.2197265625,13.373046875,5.845703125
0.072,-20.7001953125,10.6103515625,9.0888671875
0.0725,-20.580078125,7.3671875,12.33203125
0.073,-19.8193359375,3.123046875,15.775390625
0.0735,-17.9775390625,-1.12109375,18.2177734375
0.074,-16.095703125,-4.5244140625,19.779296875
0.0745,-13.93359375,-7.52734375,20.66015625
0.075,-10.7705078125,-10.490234375,20.5
0.0755,-6.6064453125,-13.93359375,19.9794921875
0.076,-1.9619140625,-16.9765625,18.5380859375
0.0765,2.72265625,-18.9384765625,16.095703125
0.077,5.60546875,-19.8193359375,14.2138671875
0.0775,8.6884765625,-20.2998046875,11.8515625
0.078,11.8115234375,-20.0595703125,8.6484375
0.0785,15.2548828125,-18.9384765625,4.404296875
0.079,17.8974609375,-17.13671875,0.0400390625
0.0795,19.69921875,-15.0546875,-3.84375
0.08,20.2998046875,-12.6923828125,-6.806640625
0.0805,20.5,-9.76953125,-9.9697265625
0.081,20.1396484375,-5.9658203125,-13.453125
0.0815,19.298828125,-2.0419921875,-16.6162109375
0.082,17.2568359375,2.2021484375,-18.73828125
0.0825,15.2548828125,5.28515625,-19.859375
0.083,12.9326171875,8.3681640625,-20.66015625
0.0835,9.3291015625,11.53125,-20.4599609375
0.084,4.8447265625,14.9345703125,-19.4189453125
0.0845,0.2802734375,17.697265625,-17.7373046875
0.085,-4.00390625,19.4990234375,-15.6552734375
0.0855,-6.7666015625,19.8994140625,-13.453125
0.086,-9.849609375,20.1396484375,-10.9306640625
0.0865,-13.29296875,19.69921875,-7.126953125
0.087,-16.416015625,18.3779296875,-2.8828125
0.0875,-18.6982421875,16.255859375,1.5615234375
0.088,-20.099609375,14.1337890625,4.96484375
0.0885,-20.6201171875,11.611328125,8.0078125
0.089,-20.580078125,8.2880859375,11.37109375
0.0895,-19.8994140625,4.32421875,14.654296875
0.09,-18.658203125,0.3203125,17.537109375
0.0905,-16.576171875,-3.7236328125,19.458984375
0.091,-14.4140625,-6.5263671875,20.099609375
0.0915,-11.931640625,-9.4892578125,20.6201171875
0.092,-7.8876953125,-12.9326171875,20.1796875
0.0925,-3.283203125,-15.9755859375,18.818359375
0.093,1.28125,-18.177734375,16.65625
0.0935,4.8046875,-19.619140625,14.7744140625
0.094,7.607421875,-19.8994140625,12.4521484375
0.0945,10.5302734375,-19.8193359375,9.7294921875
0.095,13.93359375,-19.138671875,5.765625
0.0955,16.8564453125,-17.5771484375,1.521484375
0.096,18.7783203125,-15.4150390625,-2.642578125
0.0965,19.6591796875,-13.29296875,-5.5654296875
0.097,20.1396484375,-10.73046875,-8.6484375
0.0975,19.939453125,-7.1669921875,-12.0517578125
0.098,19.138671875,-3.443359375,-15.0146484375
0.0985,17.5771484375,0.6005859375,-17.4169921875
0.099,15.6953125,4.1240234375,-19.21875
0.0995,13.4130859375,6.88671875,-19.619140625
0.1,10.810546875,9.689453125,-19.939453125
0.1005,6.5263671875,13.3330078125,-19.4189453125
0.101,1.9619140625,16.2158203125,-17.9775390625
0.1015,-2.2822265625,18.0576171875,-15.8154296875
0.102,-5.205078125,19.0986328125,-14.1337890625
0.1025,-8.087890625,19.4990234375,-11.8515625
0.103,-11.2509765625,19.21875,-8.6484375
0.1035,-14.4140625,18.41796875,-4.8447265625
0.104,-17.0966796875,16.6162109375,-0.48046875
0.1045,-18.9384765625,14.57421875,3.36328125
0.105,-19.4189453125,12.33203125,6.1259765625
0.1055,-19.8994140625,9.8095703125,9.208984375
0.106,-19.5390625,5.8056640625,12.8125
0.1065,-18.73828125,2.1220703125,15.7353515625
0.107,-16.8564453125,-1.76171875,17.7373046875
0.1075,-15.1748046875,-4.9248046875,19.3388671875
0.108,-12.8125,-7.7275390625,19.779296875
0.1085,-9.609375,-10.7705078125,19.69921875
0.109,-5.4453125,-14.1337890625,18.8984375
0.1095,-0.640625,-16.9365234375,17.1767578125
0.11,3.283203125,-18.578125,15.1748046875
0.1105,5.92578125,-19.0986328125,13.29296875
0.111,8.888671875,-19.5791015625,11.05078125
0.1115,12.4521484375,-18.9384765625,7.046875
0.112,15.2548828125,-17.9375,3.3232421875
0.1125,17.5771484375,-16.015625,-0.80078125
0.113,19.1787109375,-14.09375,-4.32421875
0.1135,19.4990234375,-11.5712890625,-7.126953125
0.114,19.8193359375,-8.728515625,-10.2900390625
0.1145,19.21875,-4.8447265625,-13.7333984375
0.115,18.09765625,-0.8408203125,-16.6162109375
0.1155,16.095703125,2.8828125,-18.2978515625
0.116,14.25390625,5.7255859375,-19.37890625
0.1165,11.8515625,8.6884765625,-19.9794921875
0.117,7.6875,12.2919921875,-19.5390625
0.1175,3.763671875,15.134765625,-18.578125
0.118,-1.0009765625,17.5771484375,-16.6162109375
0.1185,-4.564453125,19.1787109375,-14.7744140625
0.119,-7.2470703125,19.3388671875,-12.5322265625
0.1195,-10.1298828125,19.69921875,-10.25
0.12,-13.9736328125,18.8984375,-5.765625
0.1205,-16.7763671875,17.3369140625,-1.521484375
0.121,-18.658203125,15.3349609375,2.40234375
0.1215,-19.939453125,13.29296875,5.685546875
0.122,-20.2197265625,10.5703125,8.6884765625
0.1225,-20.1796875,6.88671875,12.3720703125
0.123,-19.458984375,3.203125,15.375
0.1235,-17.9375,-1.041015625,18.0576171875
0.124,-15.85546875,-4.6845703125,19.69921875
0.1245,-13.533203125,-7.4072265625,20.1396484375
0.125,-11.0908203125,-10.330078125,20.66015625
0.1255,-6.0458984375,-14.2939453125,19.779296875
0.126,-1.6416015625,-17.0166015625,18.177734375
0.1265,2.5625,-18.73828125,16.095703125
0.127,5.92578125,-20.01953125,14.2138671875
0.1275,8.80859375,-19.9794921875,11.4912109375
0.128,11.8916015625,-19.8193359375,8.4482421875
0.1285,15.3349609375,-18.978515625,4.32421875
0.129,17.9775390625,-16.9365234375,-0.3203125
0.1295,19.5390625,-14.814453125,-3.923828125
0.13,20.2197265625,-12.5322265625,-6.9267578125
0.1305,20.5400390625,-9.8896484375,-9.8896484375
0.131,19.9794921875,-5.4052734375,-13.853515625
0.1315,19.0185546875,-1.841796875,-16.4560546875
0.132,17.216796875,2.08203125,-18.578125
0.1325,15.21484375,5.5654296875,-20.1396484375
0.133,12.3720703125,8.328125,-20.1396484375
0.1335,9.5693359375,11.291015625,-20.3798828125
0.134,4.7646484375,15.0146484375,-19.458984375
0.1345,-0.16015625,17.6572265625,-17.4169921875
0.135,-3.7236328125,19.05859375,-15.455078125
0.1355,-6.7666015625,19.9794921875,-13.533203125
0.136,-9.6494140625,20.01953125,-10.9306640625
0.1365,-13.212890625,19.298828125,-6.806640625
0.137,-16.095703125,18.2978515625,-3.123046875
0.1375,-18.4580078125,16.17578125,1.361328125
0.138,-19.8994140625,14.09375,4.8447265625
0.1385,-20.2197265625,11.451171875,7.8076171875
0.139,-20.5400390625,8.7685546875,10.8505859375
0.1395,-19.8994140625,4.244140625,14.734375
0.14,-18.498046875,0.240234375,17.4169921875
0.1405,-16.5361328125,-3.36328125,19.0185546875
0.141,-14.7744140625,-6.5263671875,20.4599609375
0.1415,-11.7314453125,-9.44921875,20.419921875
0.142,-7.84765625,-12.892578125,20.099609375
0.1425,-3.603515625,-16.015625,19.0986328125
0.143,1.44140625,-18.41796875,16.7763671875
0.1435,4.8046875,-19.5791015625,14.7744140625
0.144,7.6875,-20.01953125,12.5322265625
0.1445,10.5703125,-20.2197265625,10.1298828125
0.145,14.4541015625,-19.138671875,5.28515625
0.1455,17.1767578125,-17.6572265625,1.2412109375
0.146,19.0986328125,-15.6552734375,-2.6826171875
0.1465,20.259765625,-13.453125,-5.9658203125
0.147,20.33984375,-10.490234375,-9.048828125
0.1475,20.33984375,-7.20703125,-12.3720703125
0.148,19.69921875,-3.2431640625,-15.6953125
0.1485,17.8974609375,1.12109375,-18.2578125
0.149,15.775390625,4.484375,-19.5390625
0.1495,13.61328125,7.447265625,-20.5
0.15,10.810546875,10.3701171875,-20.66015625
0.1505,5.765625,14.3740234375,-19.69921875
0.151,1.6015625,17.0166015625,-18.41796875
0.1515,-2.8427734375,19.05859375,-16.255859375
0.152,-6.1259765625,20.099609375,-14.25390625
0.1525,-9.0888671875,20.01953125,-11.451171875
0.153,-12.091796875,20.01953125,-8.728515625
0.1535,-15.6953125,18.9384765625,-4.1640625
0.154,-18.337890625,16.7763671875,0.6005859375
0.1545,-19.779296875,14.734375,4.00390625
0.155,-20.7001953125,12.4921875,7.2470703125
0.1555,-20.7001953125,9.4892578125,10.2900390625
0.156,-20.2197265625,5.2451171875,14.09375
0.1565,-19.3388671875,1.5615234375,16.896484375
0.157,-17.45703125,-2.6826171875,19.21875
0.1575,-15.2548828125,-5.9658203125,20.33984375
0.158,-12.6123046875,-8.9287109375,20.66015625
0.1585,-9.7294921875,-11.8515625,20.8603515625
0.159,-4.404296875,-15.615234375,19.4990234375
0.1595,0.3603515625,-18.0576171875,17.45703125
0.16,3.9638671875,-19.5390625,15.53515625
0.1605,7.126953125,-20.3798828125,13.453125
0.161,10.169921875,-20.1396484375,10.41015625
0.1615,13.453125,-19.619140625,6.7666015625
0.162,16.576171875,-18.5380859375,2.6826171875
0.1625,18.978515625,-16.17578125,-2.001953125
0.163,19.9794921875,-14.0537109375,-5.125
0.1635,20.580078125,-11.4912109375,-8.2880859375
0.164,20.6201171875,-8.6484375,-11.2509765625
0.1645,19.859375,-4.1240234375,-15.0146484375
0.165,18.41796875,-0.240234375,-17.5771484375
0.1655,16.576171875,3.4833984375,-19.4189453125
0.166,14.4541015625,6.646484375,-20.5
0.1665,11.291015625,9.7294921875,-20.419921875
0.167,7.8076171875,13.0126953125,-20.33984375
0.1675,3.0830078125,16.3359375,-19.138671875
0.168,-1.9619140625,18.6181640625,-16.6962890625
0.1685,-5.0048828125,19.69921875,-14.8544921875
0.169,-8.0478515625,20.33984375,-12.6923828125
0.1695,-11.05078125,20.1796875,-9.76953125
0.17,-14.734375,19.1787109375,-5.28515625
0.1705,-17.537109375,17.7373046875,-1.1611328125
0.171,-19.619140625,15.4951171875,3.123046875
0.1715,-20.4599609375,13.29296875,6.2060546875
0.172,-20.7802734375,10.2900390625,9.4892578125
0.1725,-20.7001953125,7.046875,12.7724609375
0.173,-19.939453125,2.7626953125,16.255859375
0.1735,-17.9775390625,-1.6416015625,18.6982421875
0.174,-16.0556640625,-4.96484375,20.1396484375
0.1745,-13.9736328125,-7.9677734375,21.1005859375
0.175,-10.5302734375,-11.05078125,20.8603515625
0.1755,-6.0859375,-14.654296875,20.099609375
0.176,-1.4814453125,-17.6171875,18.6982421875
0.1765,3.3232421875,-19.619140625,16.255859375
0.177,6.24609375,-20.33984375,14.173828125
0.1775,9.4091796875,-20.66015625,11.6513671875
0.178,12.6123046875,-20.3798828125,8.3681640625
0.1785,16.095703125,-19.1787109375,3.84375
0.179,18.6982421875,-17.1767578125,-0.7607421875
0.1795,20.419921875,-15.0947265625,-4.5244140625
0.18,21.060546875,-12.65234375,-7.5673828125
0.1805,21.1005859375,-9.4091796875,-10.9306640625
0.181,20.6201171875,-5.4853515625,-14.4541015625
0.1815,19.69921875,-1.4814453125,-17.5771484375
0.182,17.537109375,2.9228515625,-19.8193359375
0.1825,15.294921875,6.0859375,-20.740234375
0.183,12.7724609375,9.2490234375,-21.4609375
0.1835,9.0087890625,12.65234375,-21.140625
0.184,4.1240234375,16.095703125,-19.8994140625
0.1845,-0.640625,18.73828125,-18.017578125
0.185,-4.8046875,20.4599609375,-15.85546875
0.1855,-7.7275390625,20.8203125,-13.533203125
0.186,-10.970703125,20.900390625,-10.5703125
0.1865,-14.4140625,20.2998046875,-6.7265625
0.187,-17.6171875,18.8583984375,-2.2421875
0.1875,-19.939453125,16.4560546875,2.5224609375
0.188,-21.140625,14.2138671875,5.92578125
0.1885,-21.7412109375,11.4912109375,9.208984375
0.189,-21.62109375,7.84765625,12.732421875
0.1895,-20.7001953125,3.6435546875,16.1357421875
0.19,-19.2587890625,-0.640625,18.9384765625
0.1905,-17.056640625,-4.7646484375,20.9404296875
0.191,-14.6142578125,-7.7275390625,21.4609375
0.1915,-11.7314453125,-10.8505859375,21.8212890625
0.192,-7.4873046875,-14.4541015625,21.30078125
0.1925,-2.482421875,-17.6572265625,19.69921875
0.193,2.40234375,-19.779296875,17.216796875
0.1935,6.005859375,-21.1005859375,15.21484375
0.194,9.048828125,-21.3408203125,12.65234375
0.1945,12.2919921875,-21.1005859375,9.4091796875
0.195,15.775390625,-20.2197265625,5.1650390625
0.1955,18.7783203125,-18.4580078125,0.48046875
0.196,20.7802734375,-15.9755859375,-4.00390625
0.1965,21.4609375,-13.533203125,-7.0869140625
0.197,21.9013671875,-10.6904296875,-10.41015625
0.1975,21.5009765625,-6.6064453125,-14.1337890625
0.198,20.4599609375,-2.5625,-17.2568359375
0.1985,18.5380859375,1.841796875,-19.619140625
0.199,16.4560546875,5.685546875,-21.380859375
0.1995,13.6533203125,8.6484375,-21.6611328125
0.2,10.490234375,11.771484375,-21.7412109375
0.2005,5.8056640625,15.53515625,-20.9404296875
0.201,0.80078125,18.5380859375,-19.1787109375
0.2015,-3.8037109375,20.33984375,-16.65625
0.202,-6.966796875,21.2607421875,-14.6142578125
0.2025,-10.1298828125,21.4609375,-11.931640625
0.203,-13.61328125,20.8603515625,-8.087890625
0.2035,-16.8564453125,19.779296875,-3.8837890625
0.204,-19.619140625,17.6572265625,1.0009765625
0.2045,-21.4609375,15.294921875,5.125
0.205,-21.78125,12.5322265625,8.16796875
0.2055,-22.1416015625,9.529296875,11.611328125
0.206,-21.4609375,4.96484375,15.455078125
0.2065,-20.259765625,0.9208984375,18.5380859375
0.207,-18.017578125,-3.36328125,20.419921875
0.2075,-15.9755859375,-6.806640625,21.9013671875
0.208,-13.0126953125,-9.8896484375,22.1015625
0.2085,-9.12890625,-13.3330078125,21.78125
0.209,-4.5244140625,-16.65625,20.66015625
0.2095,0.8408203125,-19.4990234375,18.498046875
0.21,5.044921875,-21.1005859375,16.0556640625
0.2105,8.0078125,-21.4609375,13.7333984375
0.211,11.2109375,-21.7412109375,11.0107421875
0.2115,15.0947265625,-20.740234375,6.40625
0.212,18.0576171875,-19.37890625,2.162109375
0.2125,20.4599609375,-17.056640625,-2.5224609375
0.213,21.94140625,-14.7744140625,-6.3662109375
0.2135,22.0615234375,-11.771484375,-9.4892578125
0.214,22.181640625,-8.3681640625,-13.0927734375
0.2145,21.2607421875,-3.923828125,-16.576171875
0.215,19.7392578125,0.6005859375,-19.5390625
0.2155,17.296875,4.6845703125,-21.140625
0.216,14.89453125,7.8076171875,-22.1015625
0.2165,11.9716796875,11.130859375,-22.4619140625
0.217,7.046875,15.0546875,-21.62109375
0.2175,2.6826171875,17.8974609375,-20.259765625
