wavelength,x,y,z
0.0,-25.259643554688,22.707153320312,1.9268798828125
0.0005,-26.500854492188,18.823364257812,7.0518798828125
0.001,-27.221557617188,14.018676757812,12.497192382812
0.0015,-27.021362304688,9.8546142578125,16.380981445312
0.002,-25.780151367188,5.0899658203125,19.904418945312
0.0025,-24.378784179688,1.4464111328125,22.146606445312
0.003,-21.536010742188,-4.4793701171875,25.109497070312
0.0035,-17.772338867188,-10.084838867188,26.911254882812
0.004,-12.166870117188,-15.289916992188,26.510864257812
0.0045,-8.9637451171875,-18.893432617188,26.871215820312
0.005,-4.2391357421875,-21.696166992188,25.029418945312
0.0055,0.9259033203125,-24.338745117188,22.707153320312
0.006,6.0108642578125,-25.820190429688,19.223754882812
0.0065,12.176879882812,-27.301635742188,14.739379882812
0.007,16.100708007812,-26.540893554688,10.094848632812
0.0075,19.904418945312,-26.220581054688,6.0909423828125
0.008,22.106567382812,-24.538940429688,2.2872314453125
0.0085,25.149536132812,-22.016479492188,-3.3182373046875
0.009,26.230590820312,-17.892456054688,-8.4832763671875
0.0095,26.470825195312,-12.927612304688,-13.768432617188
0.01,26.510864257812,-9.3240966796875,-17.291870117188
0.0105,25.109497070312,-4.6395263671875,-20.535034179688
0.011,23.387817382812,-0.5955810546875,-22.897338867188
0.0115,20.585083007812,5.0098876953125,-25.499877929688
0.012,16.020629882812,11.296020507812,-27.181518554688
0.0125,10.895629882812,15.820434570312,-26.580932617188
0.013,7.6524658203125,19.383911132812,-26.861206054688
0.0135,2.6475830078125,21.986450195312,-24.498901367188
0.014,-2.8778076171875,24.829223632812,-22.096557617188
0.0145,-7.6824951171875,25.910278320312,-18.453002929688
0.015,-14.008666992188,27.191528320312,-13.608276367188
0.0155,-17.371948242188,26.230590820312,-9.4041748046875
0.016,-21.135620117188,25.710083007812,-5.1600341796875
0.0165,-23.377807617188,23.427856445312,-0.7557373046875
0.017,-26.140502929688,20.625122070312,4.8497314453125
0.0175,-26.941284179688,15.940551757812,10.214965820312
0.018,-26.821166992188,10.935668945312,15.179809570312
0.0185,-26.661010742188,7.5723876953125,18.422973632812
0.019,-24.779174804688,2.2872314453125,21.746215820312
0.0195,-22.657104492188,-2.3973388671875,24.188598632812
0.02,-19.494018554688,-7.6824951171875,26.230590820312
0.0205,-14.409057617188,-14.128784179688,27.551879882812
0.021,-9.5242919921875,-17.892456054688,26.470825195312
0.0215,-6.0408935546875,-21.295776367188,26.350708007812
0.022,-0.5155029296875,-23.618041992188,23.307739257812
0.0225,4.9698486328125,-26.260620117188,20.665161132812
0.023,9.9346923828125,-26.701049804688,16.260864257812
0.0235,15.860473632812,-27.661987304688,11.456176757812
0.024,18.903442382812,-26.420776367188,7.2921142578125
0.0245,22.546997070312,-25.419799804688,2.6876220703125
0.025,24.468872070312,-22.777221679688,-1.8768310546875
0.0255,26.590942382812,-19.614135742188,-7.2020263671875
0.026,26.951293945312,-14.489135742188,-12.647338867188
0.0265,26.510864257812,-9.6844482421875,-16.891479492188
0.027,26.190551757812,-6.4813232421875,-19.814331054688
0.0275,23.708129882812,-0.9959716796875,-22.777221679688
0.028,21.465942382812,3.7686767578125,-25.179565429688
0.0285,17.502075195312,9.0137939453125,-26.420776367188
0.029,12.777465820312,15.059692382812,-27.702026367188
0.0295,7.9727783203125,18.503051757812,-26.260620117188
0.03,4.2091064453125,21.706176757812,-25.700073242188
0.0305,-1.3563232421875,23.788208007812,-22.456909179688
0.031,-6.3211669921875,26.190551757812,-20.014526367188
0.0315,-11.646362304688,26.230590820312,-14.889526367188
0.032,-16.531127929688,26.751098632812,-10.765502929688
0.0325,-19.534057617188,25.790161132812,-6.9217529296875
0.033,-22.897338867188,24.028442382812,-1.7967529296875
0.0335,-24.819213867188,21.265747070312,2.8077392578125
0.034,-26.380737304688,17.862426757812,7.8927001953125
0.0345,-26.741088867188,12.857543945312,13.177856445312
0.035,-25.980346679688,8.1729736328125,17.101684570312
0.0355,-25.660034179688,5.0499267578125,19.904418945312
0.036,-22.937377929688,-0.7156982421875,22.867309570312
0.0365,-20.815307617188,-5.4803466796875,25.429809570312
0.037,-15.810424804688,-10.965698242188,25.870239257812
0.0375,-11.926635742188,-16.170776367188,27.151489257812
0.038,-7.1619873046875,-19.453979492188,25.710083007812
0.0385,-2.9578857421875,-22.376831054688,24.468872070312
0.039,2.6475830078125,-24.458862304688,21.105590820312
0.0395,7.5723876953125,-26.620971679688,18.463012695312
0.04,13.097778320312,-26.420776367188,12.937622070312
0.0405,17.341918945312,-26.620971679688,8.9337158203125
0.041,20.184692382812,-25.940307617188,5.4903564453125
0.0415,23.588012695312,-23.618041992188,-0.1951904296875
0.042,25.349731445312,-20.494995117188,-4.9998779296875
0.0425,26.390747070312,-16.411010742188,-10.124877929688
0.043,26.711059570312,-11.926635742188,-14.929565429688
0.0435,25.630004882812,-7.1619873046875,-18.573120117188
0.044,24.989379882812,-3.9188232421875,-21.135620117188
0.0445,22.066528320312,2.0469970703125,-24.058471679688
0.045,19.504028320312,7.0518798828125,-26.460815429688
0.0455,13.778442382812,12.817504882812,-26.420776367188
0.046,10.295043945312,17.181762695312,-27.301635742188
0.0465,5.5704345703125,20.384887695312,-25.820190429688
0.047,0.6456298828125,23.227661132812,-23.858276367188
0.0475,-4.8797607421875,25.149536132812,-20.414916992188
0.048,-10.285034179688,26.951293945312,-16.931518554688
0.0485,-15.169799804688,26.470825195312,-11.806518554688
0.049,-19.053588867188,26.110473632812,-7.6824951171875
0.0495,-21.495971679688,25.029418945312,-4.2791748046875
0.05,-24.779174804688,22.466918945312,1.6866455078125
0.0505,-26.260620117188,18.903442382812,6.7315673828125
0.051,-26.901245117188,14.098754882812,12.136840820312
0.0515,-26.981323242188,10.134887695312,16.180786132812
0.052,-25.619995117188,5.2501220703125,19.624145507812
0.0525,-24.298706054688,1.5264892578125,22.066528320312
0.053,-21.335815429688,-4.3992919921875,24.869262695312
0.0535,-17.852416992188,-10.004760742188,26.911254882812
0.054,-12.246948242188,-15.209838867188,26.470825195312
0.0545,-8.8436279296875,-18.933471679688,26.831176757812
0.055,-4.3992919921875,-21.576049804688,25.069458007812
0.0555,1.1260986328125,-24.418823242188,22.506958007812
0.056,6.2510986328125,-25.940307617188,19.063598632812
0.0565,12.337036132812,-27.461791992188,14.579223632812
0.057,16.300903320312,-26.781127929688,10.174926757812
0.0575,20.064575195312,-26.260620117188,5.8507080078125
0.058,22.226684570312,-24.538940429688,2.2071533203125
0.0585,25.269653320312,-21.776245117188,-3.5985107421875
0.059,26.470825195312,-17.812377929688,-8.8436279296875
0.0595,26.590942382812,-12.687377929688,-13.968627929688
0.06,26.630981445312,-9.2440185546875,-17.532104492188
0.0605,25.109497070312,-4.5594482421875,-20.655151367188
0.061,23.267700195312,-0.3553466796875,-22.937377929688
0.0615,20.304809570312,5.1700439453125,-25.379760742188
0.062,15.860473632812,11.416137695312,-27.141479492188
0.0625,10.855590820312,15.860473632812,-26.540893554688
0.063,7.3721923828125,19.423950195312,-26.620971679688
0.0635,2.8077392578125,21.706176757812,-24.378784179688
0.064,-2.9178466796875,24.629028320312,-21.736206054688
0.0645,-7.7225341796875,25.630004882812,-18.132690429688
0.065,-13.928588867188,26.791137695312,-13.287963867188
0.0655,-17.131713867188,25.990356445312,-9.4842529296875
0.066,-20.775268554688,25.309692382812,-5.1600341796875
0.0665,-22.777221679688,23.147583007812,-1.0360107421875
0.067,-25.379760742188,20.224731445312,4.4893798828125
0.0675,-26.540893554688,15.860473632812,9.9747314453125
0.068,-26.140502929688,10.855590820312,14.619262695312
0.0685,-26.180541992188,7.6925048828125,17.782348632812
0.069,-24.298706054688,2.8878173828125,20.705200195312
0.0695,-22.296752929688,-1.8768310546875,23.307739257812
0.07,-19.173706054688,-7.0018310546875,25.269653320312
0.0705,-14.328979492188,-13.368041992188,26.791137695312
0.071,-9.8846435546875,-16.971557617188,25.870239257812
0.0715,-6.3211669921875,-20.334838867188,25.750122070312
0.072,-1.5565185546875,-22.296752929688,23.027465820312
0.0725,4.1290283203125,-25.219604492188,20.384887695312
0.073,9.1739501953125,-25.980346679688,16.260864257812
0.0735,14.859497070312,-26.861206054688,11.496215820312
0.074,17.862426757812,-26.020385742188,7.8927001953125
0.0745,21.385864257812,-24.939331054688,3.4083251953125
0.075,23.387817382812,-22.536987304688,-0.9959716796875
0.0755,25.549926757812,-19.494018554688,-6.1610107421875
0.076,26.550903320312,-14.769409179688,-11.926635742188
0.0765,25.910278320312,-9.9647216796875,-16.010620117188
0.077,25.830200195312,-7.0018310546875,-18.933471679688
0.0775,23.547973632812,-1.8367919921875,-21.776245117188
0.078,21.465942382812,3.1680908203125,-24.538940429688
0.0785,17.542114257812,8.3731689453125,-25.780151367188
0.079,12.897583007812,14.619262695312,-27.381713867188
0.0795,8.4132080078125,17.982543945312,-26.220581054688
0.08,4.4893798828125,21.305786132812,-25.660034179688
0.0805,-0.9559326171875,23.347778320312,-22.496948242188
0.081,-6.1610107421875,25.910278320312,-19.974487304688
0.0815,-11.686401367188,26.270629882812,-15.049682617188
0.082,-16.531127929688,26.831176757812,-10.725463867188
0.0825,-19.534057617188,26.070434570312,-7.1219482421875
0.083,-23.057495117188,24.268676757812,-1.9168701171875
0.0835,-25.099487304688,21.385864257812,3.0479736328125
0.084,-26.620971679688,17.782348632812,8.1329345703125
0.0845,-27.301635742188,12.857543945312,13.738403320312
0.085,-26.420776367188,8.0928955078125,17.622192382812
0.0855,-25.980346679688,4.8497314453125,20.424926757812
0.086,-23.137573242188,-0.9959716796875,23.307739257812
0.0865,-20.815307617188,-6.0809326171875,25.990356445312
0.087,-15.690307617188,-11.606323242188,26.390747070312
0.0875,-11.606323242188,-16.971557617188,27.671997070312
0.088,-6.9617919921875,-20.094604492188,26.110473632812
0.0885,-2.5174560546875,-23.137573242188,24.789184570312
0.089,3.2882080078125,-25.139526367188,21.105590820312
0.0895,8.3331298828125,-27.221557617188,18.222778320312
0.09,13.978637695312,-27.061401367188,12.657348632812
0.0905,18.182739257812,-26.981323242188,8.5333251953125
0.091,20.945434570312,-26.220581054688,5.0899658203125
0.0915,24.148559570312,-23.738159179688,-0.5955810546875
0.092,25.910278320312,-20.454956054688,-5.6004638671875
0.0925,26.791137695312,-16.210815429688,-10.605346679688
0.093,27.191528320312,-11.686401367188,-15.650268554688
0.0935,25.950317382812,-6.9217529296875,-19.093627929688
0.094,25.109497070312,-3.6385498046875,-21.616088867188
0.0945,22.026489257812,2.2471923828125,-24.218627929688
0.095,19.423950195312,7.3321533203125,-26.620971679688
0.0955,13.738403320312,12.977661132812,-26.540893554688
0.096,10.094848632812,17.462036132812,-27.381713867188
0.0965,5.7305908203125,20.384887695312,-25.980346679688
0.097,0.6856689453125,23.187622070312,-23.858276367188
0.0975,-4.7996826171875,24.949340820312,-20.374877929688
0.098,-10.004760742188,26.711059570312,-16.931518554688
0.0985,-15.049682617188,26.590942382812,-12.006713867188
0.099,-18.893432617188,26.070434570312,-7.7625732421875
0.0995,-21.295776367188,25.149536132812,-4.5194091796875
0.1,-24.378784179688,22.506958007812,1.2462158203125
0.1005,-26.020385742188,19.023559570312,6.3712158203125
0.101,-26.540893554688,14.298950195312,11.536254882812
0.1015,-26.981323242188,10.375122070312,15.940551757812
0.102,-25.660034179688,5.7305908203125,19.183715820312
0.1025,-24.378784179688,1.8468017578125,21.786254882812
0.103,-21.375854492188,-3.8787841796875,24.388793945312
0.1035,-18.012573242188,-9.5643310546875,26.630981445312
0.104,-12.567260742188,-14.769409179688,26.390747070312
0.1045,-9.0438232421875,-18.733276367188,26.831176757812
0.105,-4.9197998046875,-21.295776367188,25.309692382812
0.1055,0.7257080078125,-24.298706054688,22.707153320312
0.106,5.9708251953125,-25.780151367188,19.183715820312
0.1065,12.016723632812,-27.221557617188,14.739379882812
0.107,16.180786132812,-26.981323242188,10.415161132812
0.1075,19.984497070312,-26.340698242188,6.1309814453125
0.108,22.266723632812,-24.779174804688,2.4073486328125
0.1085,25.309692382812,-21.976440429688,-3.4383544921875
0.109,26.671020507812,-17.972534179688,-8.8436279296875
0.1095,26.711059570312,-12.807495117188,-14.048706054688
0.11,26.991333007812,-9.3641357421875,-17.772338867188
0.1105,25.429809570312,-4.6795654296875,-20.815307617188
0.111,23.588012695312,-0.2752685546875,-23.337768554688
0.1115,20.384887695312,5.4903564453125,-25.780151367188
0.112,15.940551757812,11.816528320312,-27.621948242188
0.1125,10.815551757812,16.340942382812,-27.061401367188
0.113,7.2120361328125,20.024536132812,-27.181518554688
0.1135,2.5675048828125,22.306762695312,-24.859252929688
0.114,-3.2781982421875,25.349731445312,-22.136596679688
0.1145,-8.4031982421875,26.430786132812,-18.252807617188
0.115,-14.729370117188,27.551879882812,-13.287963867188
0.1155,-17.972534179688,26.831176757812,-9.4842529296875
0.116,-21.656127929688,26.070434570312,-5.0399169921875
0.1165,-23.818237304688,23.668090820312,-0.5155029296875
0.117,-26.420776367188,20.625122070312,5.1300048828125
0.1175,-27.541870117188,15.940551757812,10.935668945312
0.118,-27.101440429688,10.695434570312,15.700317382812
0.1185,-27.141479492188,7.4923095703125,18.943481445312
0.119,-25.139526367188,2.5274658203125,21.866333007812
0.1195,-22.897338867188,-2.4373779296875,24.468872070312
0.12,-19.373901367188,-7.9227294921875,26.390747070312
0.1205,-14.369018554688,-14.489135742188,27.872192382812
0.121,-9.6844482421875,-18.212768554688,26.871215820312
0.1215,-6.0008544921875,-21.736206054688,26.630981445312
0.122,-0.9959716796875,-23.537963867188,23.668090820312
0.1225,4.8497314453125,-26.300659179688,20.825317382812
0.123,10.214965820312,-27.021362304688,16.300903320312
0.1235,16.060668945312,-27.822143554688,11.376098632812
0.124,19.063598632812,-26.941284179688,7.6925048828125
0.1245,22.546997070312,-25.740112304688,3.0479736328125
0.125,24.508911132812,-23.057495117188,-1.5965576171875
0.1255,26.590942382812,-19.734252929688,-6.9217529296875
0.126,27.511840820312,-14.769409179688,-12.847534179688
0.1265,26.751098632812,-9.8045654296875,-17.011596679688
0.127,26.630981445312,-6.7615966796875,-19.974487304688
0.1275,24.148559570312,-1.5965576171875,-22.617065429688
0.128,21.866333007812,3.5284423828125,-25.339721679688
0.1285,17.622192382812,8.9737548828125,-26.500854492188
0.129,12.817504882812,15.299926757812,-27.982299804688
0.1295,8.2930908203125,18.583129882812,-26.861206054688
0.13,4.4093017578125,21.986450195312,-26.260620117188
0.1305,-1.0360107421875,23.828247070312,-22.817260742188
0.131,-6.2811279296875,26.390747070312,-20.254760742188
0.1315,-12.046752929688,26.751098632812,-15.049682617188
0.132,-16.931518554688,27.111450195312,-10.645385742188
0.1325,-19.894409179688,26.470825195312,-7.1619873046875
0.133,-23.217651367188,24.629028320312,-1.9969482421875
0.1335,-25.219604492188,21.626098632812,2.9278564453125
0.134,-26.701049804688,17.942504882812,8.0528564453125
0.1345,-27.501831054688,12.937622070312,13.898559570312
0.135,-26.540893554688,8.1729736328125,17.662231445312
0.1355,-26.300659179688,5.0899658203125,20.505004882812
0.136,-23.377807617188,-0.6756591796875,23.227661132812
0.1365,-21.135620117188,-5.7606201171875,25.950317382812
0.137,-15.890502929688,-11.486206054688,26.390747070312
0.1375,-11.806518554688,-16.971557617188,27.712036132812
0.138,-7.3621826171875,-19.974487304688,26.390747070312
0.1385,-2.9178466796875,-23.057495117188,25.109497070312
0.139,2.8878173828125,-24.939331054688,21.385864257812
0.1395,7.9327392578125,-27.141479492188,18.623168945312
0.14,13.818481445312,-27.181518554688,12.937622070312
0.1405,18.022583007812,-27.061401367188,8.7735595703125
0.141,20.865356445312,-26.540893554688,5.4903564453125
0.1415,24.148559570312,-24.058471679688,-0.2352294921875
0.142,25.950317382812,-20.815307617188,-5.2801513671875
0.1425,26.911254882812,-16.531127929688,-10.485229492188
0.143,27.551879882812,-11.966674804688,-15.650268554688
0.1435,26.230590820312,-7.2020263671875,-19.093627929688
0.144,25.589965820312,-3.8787841796875,-21.776245117188
0.1445,22.386840820312,2.0469970703125,-24.418823242188
0.145,19.864379882812,7.1719970703125,-26.981323242188
0.1455,13.898559570312,13.097778320312,-26.901245117188
0.146,10.214965820312,17.822387695312,-27.902221679688
0.1465,5.8907470703125,20.785278320312,-26.540893554688
0.147,0.7257080078125,23.828247070312,-24.458862304688
0.1475,-4.9998779296875,25.589965820312,-20.695190429688
0.148,-10.405151367188,27.391723632812,-17.291870117188
0.1485,-15.610229492188,27.231567382812,-12.046752929688
0.149,-19.494018554688,26.630981445312,-7.7225341796875
0.1495,-22.056518554688,25.830200195312,-4.4793701171875
0.15,-25.219604492188,22.987426757812,1.5665283203125
0.1505,-26.861206054688,19.263793945312,6.8917236328125
0.151,-27.301635742188,14.258911132812,12.337036132812
0.1515,-27.782104492188,10.335083007812,16.741333007812
0.152,-26.260620117188,5.4903564453125,20.024536132812
0.1525,-25.019409179688,1.5665283203125,22.667114257812
0.153,-21.696166992188,-4.5194091796875,25.269653320312
0.1535,-18.332885742188,-10.204956054688,27.471801757812
0.154,-12.407104492188,-15.570190429688,27.031372070312
0.1545,-8.9237060546875,-19.534057617188,27.471801757812
0.155,-4.6795654296875,-22.056518554688,25.830200195312
0.1555,1.1260986328125,-25.019409179688,23.107543945312
0.156,6.4512939453125,-26.380737304688,19.263793945312
0.1565,12.617309570312,-27.862182617188,14.739379882812
0.157,16.861450195312,-27.461791992188,10.295043945312
0.1575,20.625122070312,-26.620971679688,5.8106689453125
0.158,22.827270507812,-25.139526367188,2.2471923828125
0.1585,25.670043945312,-22.136596679688,-3.6785888671875
0.159,26.991333007812,-18.092651367188,-9.0438232421875
0.1595,26.871215820312,-12.687377929688,-14.288940429688
0.16,27.191528320312,-9.2840576171875,-18.012573242188
0.1605,25.549926757812,-4.7196044921875,-20.975463867188
0.161,23.748168945312,-0.3953857421875,-23.417846679688
0.1615,20.384887695312,5.2100830078125,-25.619995117188
0.162,16.140747070312,11.496215820312,-27.461791992188
0.1625,10.895629882812,16.140747070312,-26.861206054688
0.163,7.2921142578125,19.864379882812,-26.941284179688
0.1635,3.0880126953125,21.946411132812,-24.979370117188
0.164,-2.7176513671875,24.909301757812,-22.216674804688
0.1645,-7.7625732421875,25.990356445312,-18.412963867188
0.165,-13.968627929688,27.031372070312,-13.408081054688
0.1655,-17.371948242188,26.630981445312,-9.8045654296875
0.166,-21.015502929688,25.750122070312,-5.3201904296875
0.1665,-23.097534179688,23.788208007812,-1.3162841796875
0.167,-25.619995117188,20.665161132812,4.3292236328125
0.1675,-26.901245117188,16.300903320312,9.9346923828125
0.168,-26.420776367188,10.935668945312,14.779418945312
0.1685,-26.781127929688,7.8126220703125,18.222778320312
0.169,-24.939331054688,3.1680908203125,20.985473632812
0.1695,-22.977416992188,-1.7166748046875,23.748168945312
0.17,-19.494018554688,-7.0418701171875,25.630004882812
0.1705,-14.689331054688,-13.568237304688,27.271606445312
0.171,-10.084838867188,-17.371948242188,26.510864257812
0.1715,-6.3612060546875,-20.935424804688,26.350708007812
0.172,-1.7166748046875,-22.897338867188,23.748168945312
0.1725,4.1290283203125,-25.740112304688,20.985473632812
0.173,9.4542236328125,-26.620971679688,16.581176757812
0.1735,15.420043945312,-27.301635742188,11.536254882812
0.174,18.503051757812,-26.821166992188,8.1329345703125
0.1745,22.146606445312,-25.579956054688,3.2882080078125
0.175,24.188598632812,-23.177612304688,-1.1561279296875
0.1755,26.190551757812,-19.854370117188,-6.4813232421875
0.176,27.351684570312,-15.009643554688,-12.487182617188
0.1765,26.430786132812,-9.9246826171875,-16.691284179688
0.177,26.590942382812,-6.9217529296875,-19.814331054688
0.1775,24.148559570312,-1.7567138671875,-22.536987304688
0.178,21.906372070312,3.4083251953125,-25.299682617188
