wavelength,x,y,z
0.0,-4.484375,4.724609375,0.48046875
0.0005,-3.4833984375,4.8447265625,-0.6806640625
0.001,-2.2021484375,5.0849609375,-2.1220703125
0.0015,-1.041015625,5.28515625,-3.5634765625
0.002,-0.3203125,5.7255859375,-4.64453125
0.0025,0.48046875,5.7255859375,-5.365234375
0.003,1.4814453125,5.0849609375,-5.8056640625
0.0035,2.802734375,3.84375,-6.1259765625
0.004,4.1240234375,2.40234375,-6.2861328125
0.0045,5.0849609375,1.28125,-6.4462890625
0.005,5.4853515625,0.6005859375,-6.4462890625
0.0055,5.4853515625,-0.240234375,-6.005859375
0.006,5.2451171875,-1.2412109375,-5.044921875
0.0065,5.0048828125,-2.5625,-3.7236328125
0.007,4.8447265625,-3.923828125,-2.4423828125
0.0075,4.8046875,-4.96484375,-1.5615234375
0.008,4.484375,-5.525390625,-0.8408203125
0.0085,3.68359375,-5.765625,0.1201171875
0.009,2.40234375,-5.8857421875,1.4013671875
0.0095,0.9208984375,-6.0458984375,2.962890625
0.01,0.0,-6.2861328125,4.32421875
0.0105,-0.720703125,-6.5263671875,5.1650390625
0.011,-1.5615234375,-6.2060546875,5.765625
0.0115,-2.72265625,-5.1650390625,6.0859375
0.012,-4.0439453125,-3.8037109375,6.2861328125
0.0125,-5.28515625,-2.3623046875,6.3662109375
0.013,-5.9658203125,-1.44140625,6.4462890625
0.0135,-6.1259765625,-0.7607421875,6.24609375
0.014,-5.92578125,0.1201171875,5.5654296875
0.0145,-5.6455078125,1.28125,4.3642578125
0.015,-5.3251953125,2.72265625,2.8828125
0.0155,-5.2451171875,4.0439453125,1.681640625
0.016,-5.125,4.884765625,0.880859375
0.0165,-4.5244140625,5.2451171875,0.1201171875
0.017,-3.5634765625,5.3251953125,-1.0009765625
0.0175,-2.1220703125,5.4052734375,-2.482421875
0.018,-0.640625,5.5654296875,-4.00390625
0.0185,0.2001953125,5.8857421875,-5.125
0.019,0.880859375,5.92578125,-5.845703125
0.0195,1.8818359375,5.205078125,-6.3662109375
0.02,3.1630859375,3.9638671875,-6.6064453125
0.0205,4.5244140625,2.40234375,-6.6865234375
0.021,5.60546875,1.041015625,-6.7265625
0.0215,6.0458984375,0.240234375,-6.7265625
0.022,6.005859375,-0.6005859375,-6.2861328125
0.0225,5.7255859375,-1.5615234375,-5.3251953125
0.023,5.3251953125,-2.8828125,-3.8837890625
0.0235,5.044921875,-4.3642578125,-2.322265625
0.024,4.96484375,-5.4853515625,-1.28125
0.0245,4.6044921875,-6.1259765625,-0.5205078125
0.025,3.763671875,-6.326171875,0.4404296875
0.0255,2.40234375,-6.3662109375,1.681640625
0.026,0.80078125,-6.326171875,3.3232421875
0.0265,-0.5205078125,-6.4462890625,4.724609375
0.027,-1.1611328125,-6.646484375,5.685546875
0.0275,-1.8818359375,-6.40625,6.24609375
0.028,-2.962890625,-5.4853515625,6.56640625
0.0285,-4.3642578125,-4.00390625,6.6865234375
0.029,-5.60546875,-2.40234375,6.6865234375
0.0295,-6.40625,-1.201171875,6.6865234375
0.03,-6.6064453125,-0.48046875,6.5263671875
0.0305,-6.40625,0.400390625,5.8056640625
0.031,-6.005859375,1.44140625,4.64453125
0.0315,-5.60546875,2.9228515625,3.04296875
0.032,-5.365234375,4.2841796875,1.6416015625
0.0325,-5.1650390625,5.2451171875,0.6806640625
0.033,-4.6845703125,5.60546875,0.0
0.0335,-3.763671875,5.685546875,-1.041015625
0.034,-2.2421875,5.7255859375,-2.4423828125
0.0345,-0.640625,5.7255859375,-4.1240234375
0.035,0.48046875,5.8857421875,-5.28515625
0.0355,1.0810546875,6.0458984375,-6.1259765625
0.036,1.921875,5.525390625,-6.6064453125
0.0365,3.1630859375,4.32421875,-6.8466796875
0.037,4.484375,2.7626953125,-6.9267578125
0.0375,5.6455078125,1.2412109375,-6.9267578125
0.038,6.24609375,0.2802734375,-6.88671875
0.0385,6.326171875,-0.6005859375,-6.56640625
0.039,5.9658203125,-1.44140625,-5.685546875
0.0395,5.5654296875,-2.72265625,-4.2841796875
0.04,5.1650390625,-4.1640625,-2.6826171875
0.0405,4.96484375,-5.4853515625,-1.44140625
0.041,4.7646484375,-6.24609375,-0.640625
0.0415,4.0439453125,-6.486328125,0.2802734375
0.042,2.9228515625,-6.40625,1.28125
0.0425,1.28125,-6.40625,2.9228515625
0.043,-0.3203125,-6.40625,4.484375
0.0435,-1.12109375,-6.6064453125,5.525390625
0.044,-1.7216796875,-6.6064453125,6.2060546875
0.0445,-2.642578125,-5.845703125,6.5263671875
0.045,-3.9638671875,-4.5244140625,6.7265625
0.0455,-5.205078125,-2.8828125,6.7265625
0.046,-6.24609375,-1.5615234375,6.6865234375
0.0465,-6.6064453125,-0.720703125,6.646484375
0.047,-6.5263671875,0.1201171875,6.166015625
0.0475,-6.166015625,0.9609375,5.2451171875
0.048,-5.765625,2.322265625,3.7236328125
0.0485,-5.4453125,3.763671875,2.1220703125
0.049,-5.28515625,4.9248046875,1.0009765625
0.0495,-5.0048828125,5.4853515625,0.2802734375
0.05,-4.1640625,5.7255859375,-0.640625
0.0505,-2.8828125,5.7255859375,-1.8017578125
0.051,-1.3212890625,5.7255859375,-3.4033203125
0.0515,0.080078125,5.845703125,-4.8447265625
0.052,0.7607421875,6.0859375,-5.8056640625
0.0525,1.44140625,5.8857421875,-6.40625
0.053,2.5224609375,4.96484375,-6.7265625
0.0535,3.9638671875,3.443359375,-6.9267578125
0.054,5.2451171875,1.841796875,-6.9267578125
0.0545,6.0859375,0.6005859375,-6.9267578125
0.055,6.3662109375,-0.2001953125,-6.806640625
0.0555,6.1259765625,-1.0009765625,-6.1259765625
0.056,5.765625,-2.1220703125,-4.9248046875
0.0565,5.4052734375,-3.603515625,-3.36328125
0.057,5.0849609375,-5.0849609375,-1.921875
0.0575,4.9248046875,-6.0458984375,-1.0009765625
0.058,4.484375,-6.4462890625,0.0
0.0585,3.4833984375,-6.5263671875,0.9208984375
0.059,1.921875,-6.56640625,2.40234375
0.0595,0.240234375,-6.5263671875,4.1240234375
0.06,-0.9208984375,-6.6865234375,5.365234375
0.0605,-1.4814453125,-6.806640625,6.166015625
0.061,-2.3623046875,-6.2861328125,6.646484375
0.0615,-3.603515625,-5.0048828125,6.88671875
0.062,-5.0048828125,-3.4033203125,6.88671875
0.0625,-6.1259765625,-1.841796875,6.88671875
0.063,-6.7265625,-0.80078125,6.7666015625
0.0635,-6.7265625,0.0,6.40625
0.064,-6.40625,0.8408203125,5.5654296875
0.0645,-6.005859375,2.0419921875,4.1240234375
0.065,-5.5654296875,3.5234375,2.482421875
0.0655,-5.365234375,4.8046875,1.12109375
0.066,-5.0849609375,5.60546875,0.3203125
0.0665,-4.3642578125,5.845703125,-0.5205078125
0.067,-3.203125,5.8056640625,-1.6015625
0.0675,-1.6015625,5.8056640625,-3.1630859375
0.068,0.0,5.765625,-4.6845703125
0.0685,0.80078125,5.9658203125,-5.765625
0.069,1.4013671875,5.92578125,-6.3662109375
0.0695,2.3623046875,5.1650390625,-6.7265625
0.07,3.6435546875,3.8037109375,-6.9267578125
0.0705,4.9248046875,2.2021484375,-6.9267578125
0.071,5.8857421875,0.80078125,-6.8466796875
0.0715,6.24609375,0.0400390625,-6.7666015625
0.072,6.166015625,-0.80078125,-6.2861328125
0.0725,5.765625,-1.7216796875,-5.365234375
0.073,5.4052734375,-3.04296875,-3.8837890625
0.0735,5.0048828125,-4.484375,-2.322265625
0.074,4.884765625,-5.525390625,-1.28125
0.0745,4.5244140625,-6.1259765625,-0.5205078125
0.075,3.763671875,-6.2861328125,0.400390625
0.0755,2.5224609375,-6.2861328125,1.5615234375
0.076,0.9609375,-6.2861328125,3.1630859375
0.0765,-0.48046875,-6.3662109375,4.5244140625
0.077,-1.0810546875,-6.6064453125,5.4853515625
0.0775,-1.76171875,-6.4462890625,6.0859375
0.078,-2.6826171875,-5.6455078125,6.40625
0.0785,-4.00390625,-4.244140625,6.56640625
0.079,-5.2451171875,-2.72265625,6.56640625
0.0795,-6.1259765625,-1.5615234375,6.6064453125
0.08,-6.3662109375,-0.880859375,6.5263671875
0.0805,-6.24609375,-0.2001953125,5.9658203125
0.081,-5.8857421875,0.880859375,4.96484375
0.0815,-5.5654296875,2.2421875,3.4833984375
0.082,-5.3251953125,3.6435546875,2.1220703125
0.0825,-5.2451171875,4.724609375,1.201171875
0.083,-4.8447265625,5.205078125,0.48046875
0.0835,-4.083984375,5.4052734375,-0.48046875
0.084,-2.7626953125,5.4052734375,-1.681640625
0.0845,-1.28125,5.4853515625,-3.283203125
0.085,-0.240234375,5.7255859375,-4.564453125
0.0855,0.48046875,5.9658203125,-5.4453125
0.086,1.28125,5.6455078125,-6.0458984375
0.0865,2.40234375,4.64453125,-6.326171875
0.087,3.763671875,3.203125,-6.486328125
0.0875,4.9248046875,1.8017578125,-6.56640625
0.088,5.6455078125,0.80078125,-6.6865234375
0.0885,5.8056640625,0.16015625,-6.486328125
0.089,5.60546875,-0.7607421875,-5.845703125
0.0895,5.28515625,-1.8017578125,-4.724609375
0.09,5.0048828125,-3.203125,-3.2431640625
0.0905,4.884765625,-4.484375,-2.08203125
0.091,4.7646484375,-5.28515625,-1.28125
0.0915,4.2841796875,-5.7255859375,-0.6005859375
0.092,3.36328125,-5.8056640625,0.48046875
0.0925,1.9619140625,-5.92578125,1.8818359375
0.093,0.6005859375,-6.005859375,3.36328125
0.0935,-0.3603515625,-6.3662109375,4.484375
0.094,-0.9208984375,-6.4462890625,5.2451171875
0.0945,-1.76171875,-5.9658203125,5.7255859375
0.095,-2.8828125,-4.9248046875,6.005859375
0.0955,-4.1640625,-3.5634765625,6.1259765625
0.096,-5.2451171875,-2.2822265625,6.24609375
0.0965,-5.765625,-1.5615234375,6.3662109375
0.097,-5.8857421875,-0.9609375,6.0859375
0.0975,-5.7255859375,-0.2001953125,5.4052734375
0.098,-5.4052734375,1.12109375,4.2841796875
0.0985,-5.1650390625,2.482421875,2.9228515625
0.099,-5.1650390625,3.7236328125,1.921875
0.0995,-5.0048828125,4.484375,1.2412109375
0.1,-4.484375,4.8046875,0.4404296875
0.1005,-3.5234375,4.9248046875,-0.640625
0.101,-2.2421875,5.125,-2.001953125
0.1015,-1.041015625,5.3251953125,-3.443359375
0.102,-0.3603515625,5.685546875,-4.5244140625
0.1025,0.400390625,5.7255859375,-5.2451171875
0.103,1.28125,5.1650390625,-5.7255859375
0.1035,2.5625,4.0439453125,-6.005859375
0.104,3.8837890625,2.642578125,-6.166015625
0.1045,4.8447265625,1.4814453125,-6.40625
0.105,5.28515625,0.8408203125,-6.486328125
0.1055,5.28515625,0.16015625,-6.1259765625
0.106,5.125,-0.80078125,-5.28515625
0.1065,4.9248046875,-2.001953125,-4.083984375
0.107,4.8046875,-3.4033203125,-2.8427734375
0.1075,4.8046875,-4.4443359375,-2.001953125
0.108,4.6044921875,-5.125,-1.28125
0.1085,3.9638671875,-5.4052734375,-0.5205078125
0.109,2.8427734375,-5.525390625,0.7607421875
0.1095,1.4814453125,-5.7255859375,2.2421875
0.11,0.5205078125,-6.0458984375,3.5234375
0.1105,-0.16015625,-6.3662109375,4.484375
0.111,-0.9609375,-6.2060546875,5.0849609375
0.1115,-1.921875,-5.4453125,5.4453125
0.112,-3.203125,-4.244140625,5.7255859375
0.1125,-4.404296875,-3.0029296875,5.92578125
0.113,-5.205078125,-2.1220703125,6.1259765625
0.1135,-5.4853515625,-1.4814453125,6.0859375
0.114,-5.4453125,-0.80078125,5.6455078125
0.1145,-5.28515625,0.240234375,4.7646484375
0.115,-5.0849609375,1.5615234375,3.5634765625
0.1155,-5.0849609375,2.8427734375,2.5224609375
0.116,-5.0849609375,3.763671875,1.76171875
0.1165,-4.7646484375,4.2841796875,1.0810546875
0.117,-4.0439453125,4.5244140625,0.2802734375
0.1175,-2.962890625,4.8046875,-1.0810546875
0.118,-1.7216796875,5.0048828125,-2.5224609375
0.1185,-1.0009765625,5.4052734375,-3.68359375
0.119,-0.3603515625,5.685546875,-4.5244140625
0.1195,0.560546875,5.4052734375,-5.125
0.12,1.681640625,4.484375,-5.4853515625
0.1205,3.0029296875,3.2431640625,-5.765625
0.121,4.1240234375,2.08203125,-6.0458984375
0.1215,4.8046875,1.3212890625,-6.2861328125
0.122,5.044921875,0.80078125,-6.166015625
0.1225,4.96484375,0.0400390625,-5.685546875
0.123,4.8447265625,-1.1611328125,-4.6845703125
0.1235,4.724609375,-2.482421875,-3.5234375
0.124,4.8046875,-3.7236328125,-2.5625
0.1245,4.7646484375,-4.5244140625,-1.8818359375
0.125,4.2841796875,-5.0048828125,-1.12109375
0.1255,3.443359375,-5.28515625,0.0
0.126,2.2421875,-5.4853515625,1.361328125
0.1265,1.12109375,-5.8056640625,2.72265625
0.127,0.4404296875,-6.24609375,3.84375
0.1275,-0.3203125,-6.3662109375,4.64453125
0.128,-1.2412109375,-5.845703125,5.1650390625
0.1285,-2.482421875,-4.884765625,5.4853515625
0.129,-3.8037109375,-3.5634765625,5.7255859375
0.1295,-4.8447265625,-2.5224609375,6.005859375
0.13,-5.3251953125,-1.841796875,6.1259765625
0.1305,-5.4052734375,-1.1611328125,5.845703125
0.131,-5.28515625,-0.3603515625,5.125
0.1315,-5.125,0.9609375,4.0439453125
0.132,-5.0849609375,2.2822265625,2.8828125
0.1325,-5.125,3.443359375,2.0419921875
0.133,-4.9248046875,4.1240234375,1.361328125
0.1335,-4.3642578125,4.484375,0.6005859375
0.134,-3.3232421875,4.6845703125,-0.6806640625
0.1345,-2.1220703125,4.9248046875,-2.08203125
0.135,-1.1611328125,5.3251953125,-3.4033203125
0.1355,-0.5205078125,5.685546875,-4.404296875
0.136,0.3603515625,5.525390625,-5.0849609375
0.1365,1.4013671875,4.7646484375,-5.525390625
0.137,2.72265625,3.5234375,-5.765625
0.1375,3.9638671875,2.2421875,-6.0859375
0.138,4.8447265625,1.4013671875,-6.2861328125
0.1385,5.125,0.7607421875,-6.2861328125
0.139,5.0849609375,0.0,-5.765625
0.1395,4.9248046875,-1.0810546875,-4.8046875
0.14,4.7646484375,-2.40234375,-3.603515625
0.1405,4.7646484375,-3.7236328125,-2.5224609375
0.141,4.724609375,-4.64453125,-1.8017578125
0.1415,4.3642578125,-5.125,-1.0810546875
0.142,3.5634765625,-5.3251953125,-0.2001953125
0.1425,2.3623046875,-5.525390625,1.28125
0.143,1.0810546875,-5.765625,2.72265625
0.1435,0.2802734375,-6.1259765625,3.8837890625
0.144,-0.400390625,-6.3662109375,4.7646484375
0.1445,-1.3212890625,-6.005859375,5.28515625
0.145,-2.482421875,-5.0048828125,5.60546875
0.1455,-3.84375,-3.7236328125,5.8056640625
0.146,-4.884765625,-2.4423828125,6.0458984375
0.1465,-5.4853515625,-1.76171875,6.24609375
0.147,-5.6455078125,-1.12109375,6.005859375
0.1475,-5.4453125,-0.3603515625,5.4052734375
0.148,-5.28515625,0.9208984375,4.244140625
0.1485,-5.125,2.3623046875,2.9228515625
0.149,-5.125,3.5234375,1.9619140625
0.1495,-5.0048828125,4.2841796875,1.28125
0.15,-4.4443359375,4.6044921875,0.48046875
0.1505,-3.4833984375,4.8046875,-0.640625
0.151,-2.2421875,5.044921875,-2.001953125
0.1515,-1.0810546875,5.3251953125,-3.4833984375
0.152,-0.4404296875,5.7255859375,-4.5244140625
0.1525,0.3603515625,5.60546875,-5.2451171875
0.153,1.361328125,5.0849609375,-5.7255859375
0.1535,2.6826171875,3.763671875,-6.0458984375
0.154,4.0439453125,2.40234375,-6.2060546875
0.1545,5.0048828125,1.361328125,-6.40625
0.155,5.4052734375,0.720703125,-6.4462890625
0.1555,5.365234375,0.0,-5.9658203125
0.156,5.125,-1.0810546875,-5.125
0.1565,4.9248046875,-2.3623046875,-3.84375
0.157,4.8046875,-3.763671875,-2.5625
0.1575,4.8046875,-4.8046875,-1.681640625
0.158,4.484375,-5.4052734375,-1.0009765625
0.1585,3.7236328125,-5.60546875,0.0
0.159,2.5224609375,-5.7255859375,1.2412109375
0.1595,1.12109375,-5.8857421875,2.802734375
0.16,0.1201171875,-6.2060546875,4.0439453125
0.1605,-0.5205078125,-6.486328125,4.96484375
0.161,-1.3212890625,-6.2060546875,5.5654296875
0.1615,-2.482421875,-5.28515625,5.845703125
0.162,-3.8037109375,-3.8837890625,6.0859375
0.1625,-5.044921875,-2.5224609375,6.2060546875
0.163,-5.765625,-1.6015625,6.3662109375
0.1635,-5.92578125,-0.9208984375,6.2060546875
0.164,-5.765625,-0.16015625,5.5654296875
0.1645,-5.4853515625,1.041015625,4.4443359375
0.165,-5.28515625,2.482421875,3.04296875
0.1655,-5.205078125,3.8037109375,1.921875
0.166,-5.125,4.64453125,1.12109375
0.1665,-4.6044921875,5.044921875,0.3603515625
0.167,-3.603515625,5.1650390625,-0.720703125
0.1675,-2.2822265625,5.3251953125,-2.2021484375
0.168,-0.8408203125,5.4853515625,-3.763671875
0.1685,0.0,5.765625,-4.9248046875
0.169,0.640625,5.845703125,-5.7255859375
0.1695,1.6015625,5.1650390625,-6.166015625
0.17,3.0029296875,4.00390625,-6.4462890625
0.1705,4.32421875,2.482421875,-6.56640625
0.171,5.4052734375,1.201171875,-6.6865234375
0.1715,5.8857421875,0.3603515625,-6.6865234375
0.172,5.8857421875,-0.5205078125,-6.2861328125
0.1725,5.60546875,-1.44140625,-5.3251953125
0.173,5.3251953125,-2.8427734375,-3.8837890625
0.1735,5.0849609375,-4.32421875,-2.3623046875
0.174,4.96484375,-5.4453125,-1.361328125
0.1745,4.6044921875,-6.0458984375,-0.6005859375
0.175,3.763671875,-6.166015625,0.400390625
0.1755,2.4423828125,-6.24609375,1.6416015625
0.176,0.80078125,-6.2861328125,3.3232421875
0.1765,-0.5205078125,-6.4462890625,4.724609375
0.177,-1.1611328125,-6.6865234375,5.6455078125
0.1775,-1.921875,-6.4462890625,6.2060546875
0.178,-2.962890625,-5.4052734375,6.5263671875
0.1785,-4.3642578125,-3.8837890625,6.6865234375
0.179,-5.6455078125,-2.2822265625,6.6865234375
0.1795,-6.40625,-1.1611328125,6.6865234375
0.18,-6.6064453125,-0.400390625,6.4462890625
0.1805,-6.326171875,0.48046875,5.7255859375
0.181,-5.92578125,1.5615234375,4.5244140625
0.1815,-5.525390625,3.04296875,2.9228515625
0.182,-5.3251953125,4.404296875,1.521484375
0.1825,-5.125,5.28515625,0.6005859375
0.183,-4.6044921875,5.685546875,-0.2001953125
0.1835,-3.603515625,5.7255859375,-1.12109375
0.184,-2.1220703125,5.685546875,-2.5625
0.1845,-0.6005859375,5.685546875,-4.1640625
0.185,0.5205078125,5.845703125,-5.4052734375
0.1855,1.0810546875,5.9658203125,-6.166015625
0.186,1.9619140625,5.4453125,-6.6064453125
0.1865,3.1630859375,4.244140625,-6.806640625
0.187,4.564453125,2.642578125,-6.9267578125
0.1875,5.685546875,1.1611328125,-6.9267578125
0.188,6.2861328125,0.16015625,-6.88671875
0.1885,6.2861328125,-0.6005859375,-6.56640625
0.189,5.9658203125,-1.4814453125,-5.6455078125
0.1895,5.5654296875,-2.72265625,-4.244140625
0.19,5.1650390625,-4.2041015625,-2.642578125
0.1905,4.96484375,-5.4453125,-1.361328125
0.191,4.724609375,-6.2060546875,-0.6005859375
0.1915,4.00390625,-6.4462890625,0.2802734375
0.192,2.8427734375,-6.4462890625,1.361328125
0.1925,1.2412109375,-6.486328125,2.962890625
0.193,-0.3603515625,-6.486328125,4.5244140625
0.1935,-1.201171875,-6.7265625,5.60546875
0.194,-1.76171875,-6.646484375,6.24609375
0.1945,-2.72265625,-5.845703125,6.6064453125
0.195,-4.00390625,-4.484375,6.7666015625
0.1955,-5.3251953125,-2.8828125,6.7666015625
0.196,-6.2861328125,-1.4814453125,6.7666015625
0.1965,-6.6865234375,-0.6806640625,6.6865234375
0.197,-6.5263671875,0.1201171875,6.166015625
0.1975,-6.1259765625,1.0009765625,5.1650390625
0.198,-5.765625,2.40234375,3.6435546875
0.1985,-5.4453125,3.8837890625,2.0419921875
0.199,-5.28515625,5.044921875,0.9609375
0.1995,-4.96484375,5.60546875,0.240234375
0.2,-4.083984375,5.7255859375,-0.6806640625
0.2005,-2.802734375,5.685546875,-1.9619140625
0.201,-1.201171875,5.7255859375,-3.603515625
0.2015,0.16015625,5.8056640625,-5.0048828125
0.202,0.8408203125,6.0859375,-5.92578125
0.2025,1.5615234375,5.845703125,-6.486328125
0.203,2.6025390625,4.884765625,-6.7666015625
0.2035,4.0439453125,3.3232421875,-6.9267578125
0.204,5.365234375,1.6416015625,-6.9267578125
0.2045,6.2060546875,0.48046875,-6.9267578125
0.205,6.3662109375,-0.3203125,-6.7666015625
0.2055,6.1259765625,-1.12109375,-6.0458984375
0.206,5.7255859375,-2.2421875,-4.8447265625
0.2065,5.365234375,-3.68359375,-3.2431640625
0.207,5.0849609375,-5.0849609375,-1.8017578125
0.2075,4.884765625,-6.0458984375,-0.8408203125
0.208,4.3642578125,-6.4462890625,0.0
0.2085,3.3232421875,-6.5263671875,0.9208984375
0.209,1.841796875,-6.5263671875,2.40234375
0.2095,0.1201171875,-6.5263671875,4.083984375
0.21,-1.0009765625,-6.6064453125,5.365234375
0.2105,-1.5615234375,-6.7265625,6.1259765625
0.211,-2.40234375,-6.24609375,6.56640625
0.2115,-3.603515625,-5.0048828125,6.7666015625
0.212,-5.0048828125,-3.36328125,6.88671875
0.2125,-6.1259765625,-1.841796875,6.806640625
0.213,-6.7265625,-0.8408203125,6.7666015625
0.2135,-6.6865234375,-0.16015625,6.40625
0.214,-6.3662109375,0.7607421875,5.5654296875
0.2145,-5.92578125,2.0419921875,4.1240234375
0.215,-5.525390625,3.5234375,2.5224609375
0.2155,-5.365234375,4.8046875,1.2412109375
0.216,-5.0849609375,5.525390625,0.4404296875
0.2165,-4.404296875,5.7255859375,-0.48046875
0.217,-3.2431640625,5.685546875,-1.521484375
0.2175,-1.7216796875,5.7255859375,-3.0830078125
0.218,-0.16015625,5.765625,-4.6044921875
0.2185,0.6806640625,6.005859375,-5.6455078125
0.219,1.28125,5.9658203125,-6.326171875
0.2195,2.2822265625,5.1650390625,-6.6865234375
0.22,3.5634765625,3.84375,-6.8466796875
0.2205,4.8447265625,2.2421875,-6.88671875
0.221,5.8857421875,0.8408203125,-6.8466796875
0.2215,6.24609375,0.0400390625,-6.806640625
0.222,6.166015625,-0.720703125,-6.2861328125
0.2225,5.765625,-1.6416015625,-5.3251953125
0.223,5.4052734375,-2.962890625,-3.8837890625
0.2235,5.0849609375,-4.4443359375,-2.322265625
0.224,4.9248046875,-5.525390625,-1.28125
0.2245,4.564453125,-6.166015625,-0.5205078125
0.225,3.8037109375,-6.326171875,0.400390625
0.2255,2.482421875,-6.3662109375,1.521484375
0.226,0.9609375,-6.2861328125,3.1630859375
0.2265,-0.48046875,-6.3662109375,4.564453125
0.227,-1.0810546875,-6.6064453125,5.4853515625
0.2275,-1.76171875,-6.4462890625,6.0859375
0.228,-2.642578125,-5.6455078125,6.40625
