wavelength,x,y,z
0.0,-8.6083984375,8.6484375,-2.2021484375
0.0005,-7.447265625,7.8076171875,-3.203125
0.001,-5.0048828125,7.3271484375,-5.845703125
0.0015,-2.5625,6.1259765625,-7.6474609375
0.002,-0.3203125,5.365234375,-9.609375
0.0025,1.921875,4.32421875,-11.2109375
0.003,3.36328125,2.6025390625,-11.0908203125
0.0035,4.96484375,1.2412109375,-11.4912109375
0.004,7.84765625,-1.28125,-11.6513671875
0.0045,9.2490234375,-3.123046875,-10.7705078125
0.005,11.2109375,-4.564453125,-10.7705078125
0.0055,11.8515625,-5.845703125,-9.529296875
0.006,11.5712890625,-6.486328125,-7.9677734375
0.0065,11.771484375,-7.7275390625,-6.1259765625
0.007,11.3310546875,-8.8486328125,-3.5634765625
0.0075,10.4501953125,-8.9287109375,-1.681640625
0.008,10.2099609375,-9.6494140625,0.3603515625
0.0085,8.0078125,-8.6083984375,2.2421875
0.009,6.646484375,-7.767578125,3.4833984375
0.0095,4.00390625,-7.2470703125,6.166015625
0.01,1.6416015625,-5.92578125,7.84765625
0.0105,-0.48046875,-5.125,9.5693359375
0.011,-2.5625,-4.00390625,10.970703125
0.0115,-4.1640625,-2.0419921875,10.73046875
0.012,-5.9658203125,-0.4404296875,10.970703125
0.0125,-8.728515625,1.921875,11.130859375
0.013,-9.9296875,3.7236328125,10.009765625
0.0135,-11.5712890625,4.8046875,10.08984375
0.014,-12.0517578125,6.0859375,8.6083984375
0.0145,-11.611328125,6.806640625,6.6865234375
0.015,-11.69140625,8.0478515625,4.724609375
0.0155,-11.2509765625,9.048828125,2.2421875
0.016,-10.1298828125,8.888671875,0.400390625
0.0165,-9.9697265625,9.3291015625,-1.4013671875
0.017,-7.4873046875,8.248046875,-3.5234375
0.0175,-5.8056640625,7.3271484375,-4.9248046875
0.018,-3.283203125,6.88671875,-7.5673828125
0.0185,-0.8408203125,5.4853515625,-9.12890625
0.019,1.041015625,4.64453125,-10.5703125
0.0195,3.04296875,3.4833984375,-11.7314453125
0.02,4.9248046875,1.3212890625,-11.53125
0.0205,6.966796875,-0.6005859375,-11.611328125
0.021,9.6494140625,-2.802734375,-11.7314453125
0.0215,10.5703125,-4.564453125,-10.2900390625
0.022,11.9716796875,-5.2451171875,-10.4501953125
0.0225,12.171875,-6.56640625,-8.6884765625
0.023,11.6513671875,-7.447265625,-6.486328125
0.0235,11.7314453125,-8.6884765625,-4.404296875
0.024,11.130859375,-9.529296875,-1.8818359375
0.0245,9.76953125,-9.12890625,-0.16015625
0.025,9.529296875,-9.369140625,1.44140625
0.0255,6.6865234375,-8.16796875,3.68359375
0.026,4.8046875,-7.0869140625,5.2451171875
0.0265,2.322265625,-6.7265625,7.9677734375
0.027,-0.2001953125,-5.0849609375,9.2490234375
0.0275,-1.8017578125,-4.244140625,10.4501953125
0.028,-3.763671875,-2.9228515625,11.37109375
0.0285,-5.7255859375,-0.640625,10.970703125
0.029,-7.84765625,1.361328125,10.970703125
0.0295,-10.330078125,3.443359375,10.9306640625
0.03,-10.890625,4.96484375,9.44921875
0.0305,-12.0517578125,5.3251953125,9.6494140625
0.031,-12.01171875,6.7265625,7.4873046875
0.0315,-11.451171875,7.6474609375,5.1650390625
0.032,-11.53125,8.888671875,3.04296875
0.0325,-10.650390625,9.3291015625,0.6005859375
0.033,-9.44921875,8.7685546875,-1.0009765625
0.0335,-8.96875,8.80859375,-2.482421875
0.034,-6.1259765625,7.607421875,-4.6845703125
0.0345,-4.083984375,6.6865234375,-6.3662109375
0.035,-1.6416015625,6.326171875,-8.96875
0.0355,0.7607421875,4.5244140625,-9.9697265625
0.036,2.0419921875,3.9638671875,-11.05078125
0.0365,4.00390625,2.40234375,-11.69140625
0.037,5.9658203125,0.1201171875,-11.3310546875
0.0375,8.328125,-2.001953125,-11.4111328125
0.038,10.650390625,-4.0439453125,-11.0908203125
0.0385,10.9306640625,-5.1650390625,-9.7294921875
0.039,11.931640625,-5.525390625,-9.849609375
0.0395,11.771484375,-7.0068359375,-7.4072265625
0.04,11.2109375,-7.8876953125,-5.125
0.0405,11.37109375,-9.3291015625,-2.9228515625
0.041,10.2099609375,-9.4892578125,-0.5205078125
0.0415,9.208984375,-8.8486328125,0.720703125
0.042,8.328125,-8.6484375,2.2822265625
0.0425,5.4052734375,-7.3671875,4.564453125
0.043,3.3232421875,-6.56640625,6.40625
0.0435,0.880859375,-6.1259765625,8.96875
0.044,-1.44140625,-4.244140625,9.7294921875
0.0445,-2.482421875,-3.763671875,10.650390625
0.045,-4.6044921875,-1.8818359375,11.05078125
0.0455,-6.56640625,0.4404296875,10.6904296875
0.046,-9.048828125,2.5224609375,10.7705078125
0.0465,-11.05078125,4.404296875,10.2900390625
0.047,-11.1708984375,5.205078125,9.0087890625
0.0475,-11.931640625,5.60546875,8.888671875
0.048,-11.7314453125,7.287109375,6.166015625
0.0485,-11.2109375,8.1279296875,3.8837890625
0.049,-11.291015625,9.529296875,1.5615234375
0.0495,-9.9697265625,9.3291015625,-0.80078125
0.05,-9.0087890625,8.6083984375,-1.76171875
0.0505,-7.7275390625,8.2880859375,-3.4833984375
0.051,-4.7646484375,7.0869140625,-5.845703125
0.0515,-2.482421875,6.2861328125,-7.84765625
0.052,0.080078125,5.685546875,-10.330078125
0.0525,2.08203125,3.84375,-10.8505859375
0.053,2.9228515625,3.2431640625,-11.4912109375
0.0535,5.4052734375,1.0810546875,-11.8515625
0.054,7.4072265625,-1.201171875,-11.4111328125
0.0545,9.9296875,-3.3232421875,-11.37109375
0.055,11.6513671875,-5.0849609375,-10.7705078125
0.0555,11.5712890625,-5.765625,-9.369140625
0.056,12.171875,-6.3662109375,-8.7685546875
0.0565,11.8916015625,-8.1279296875,-5.8056640625
0.057,11.2109375,-8.6884765625,-3.7236328125
0.0575,11.1708984375,-10.009765625,-1.28125
0.058,9.6494140625,-9.5693359375,0.9208984375
0.0585,8.5283203125,-8.568359375,1.8818359375
0.059,6.806640625,-8.16796875,3.8837890625
0.0595,3.84375,-6.9267578125,6.24609375
0.06,1.521484375,-6.0458984375,8.248046875
0.0605,-1.041015625,-5.28515625,10.5302734375
0.061,-2.7626953125,-3.4833984375,10.73046875
0.0615,-3.68359375,-2.642578125,11.05078125
0.062,-6.486328125,-0.2001953125,11.37109375
0.0625,-8.2880859375,1.921875,10.810546875
0.063,-10.5302734375,3.84375,10.6904296875
0.0635,-11.931640625,5.365234375,9.9296875
0.064,-11.69140625,5.9658203125,8.4482421875
0.0645,-12.1318359375,6.7265625,7.3271484375
0.065,-11.771484375,8.3681640625,4.484375
0.0655,-11.0107421875,8.6484375,2.482421875
0.066,-10.890625,9.76953125,0.1201171875
0.0665,-9.2490234375,9.208984375,-1.9619140625
0.067,-8.0078125,8.16796875,-2.8828125
0.0675,-5.92578125,7.6875,-5.1650390625
0.068,-3.203125,6.5263671875,-7.2470703125
0.0685,-1.0009765625,5.6455078125,-9.12890625
0.069,1.44140625,4.8046875,-11.1708984375
0.0695,3.0029296875,3.04296875,-11.2109375
0.07,4.1640625,1.9619140625,-11.53125
0.0705,7.126953125,-0.640625,-11.8115234375
0.071,8.6884765625,-2.5224609375,-11.0908203125
0.0715,10.73046875,-4.2041015625,-10.890625
0.072,11.8515625,-5.60546875,-10.1298828125
0.0725,11.5712890625,-6.3662109375,-8.48828125
0.073,11.8115234375,-7.287109375,-7.0869140625
0.0735,11.53125,-8.6884765625,-4.404296875
0.074,10.73046875,-8.80859375,-2.5224609375
0.0745,10.5703125,-9.689453125,-0.3603515625
0.075,8.7685546875,-8.9287109375,1.6015625
0.0755,7.3671875,-7.9677734375,2.7626953125
0.076,5.044921875,-7.4873046875,5.2451171875
0.0765,2.5224609375,-6.3662109375,7.1669921875
0.077,0.3603515625,-5.4052734375,8.888671875
0.0775,-1.8818359375,-4.5244140625,10.73046875
0.078,-3.443359375,-2.72265625,10.6103515625
0.0785,-4.96484375,-1.3212890625,10.890625
0.079,-7.84765625,1.1611328125,11.130859375
0.0795,-9.2490234375,3.0029296875,10.2900390625
0.08,-11.0107421875,4.3642578125,10.2099609375
0.0805,-11.931640625,5.5654296875,9.2490234375
0.081,-11.611328125,6.3662109375,7.4072265625
0.0815,-11.7314453125,7.447265625,5.6455078125
0.082,-11.4111328125,8.7685546875,3.123046875
0.0825,-10.41015625,8.7685546875,1.2412109375
0.083,-10.2900390625,9.44921875,-0.6806640625
0.0835,-8.2880859375,8.6083984375,-2.72265625
0.084,-6.6064453125,7.6474609375,-4.0439453125
0.0845,-4.2041015625,7.1669921875,-6.646484375
0.085,-1.7216796875,6.005859375,-8.48828125
0.0855,0.2802734375,5.044921875,-9.9697265625
0.086,2.2822265625,4.1240234375,-11.5712890625
0.0865,4.1640625,2.0419921875,-11.4912109375
0.087,5.9658203125,0.3603515625,-11.611328125
0.0875,8.8486328125,-1.9619140625,-11.8515625
0.088,10.08984375,-3.923828125,-10.650390625
0.0885,11.53125,-5.0048828125,-10.5703125
0.089,12.251953125,-6.166015625,-9.4091796875
0.0895,11.771484375,-7.1669921875,-7.2470703125
0.09,11.771484375,-8.2080078125,-5.2451171875
0.0905,11.4912109375,-9.369140625,-2.72265625
0.091,10.08984375,-9.048828125,-0.7607421875
0.0915,10.009765625,-9.529296875,0.880859375
0.092,7.52734375,-8.6484375,3.1630859375
0.0925,5.60546875,-7.4873046875,4.6044921875
0.093,3.1630859375,-7.0068359375,7.20703125
0.0935,0.6005859375,-5.6455078125,8.96875
0.094,-1.28125,-4.5244140625,10.08984375
0.0945,-3.1630859375,-3.603515625,11.451171875
0.095,-5.2451171875,-1.28125,11.2109375
0.0955,-7.126953125,0.640625,11.130859375
0.096,-9.9296875,2.802734375,11.37109375
0.0965,-10.8505859375,4.6044921875,9.849609375
0.097,-11.9716796875,5.205078125,9.849609375
0.0975,-12.412109375,6.4462890625,8.328125
0.098,-11.771484375,7.52734375,5.8857421875
0.0985,-11.69140625,8.6083984375,3.8037109375
0.099,-11.2509765625,9.609375,1.2412109375
0.0995,-9.689453125,8.96875,-0.640625
0.1,-9.609375,9.2490234375,-1.9619140625
0.1005,-6.88671875,8.16796875,-4.32421875
0.101,-4.724609375,7.046875,-5.9658203125
0.1015,-2.4423828125,6.6064453125,-8.48828125
0.102,0.2802734375,5.044921875,-9.9697265625
0.1025,1.76171875,4.0439453125,-10.890625
0.103,3.5634765625,3.0029296875,-11.9716796875
0.1035,5.685546875,0.6005859375,-11.69140625
0.104,7.8076171875,-1.4814453125,-11.53125
0.1045,10.41015625,-3.6435546875,-11.5712890625
0.105,11.0107421875,-5.1650390625,-9.9697265625
0.1055,11.9716796875,-5.525390625,-10.1298828125
0.106,12.171875,-6.806640625,-8.2080078125
0.1065,11.53125,-7.767578125,-5.765625
0.107,11.53125,-8.96875,-3.6435546875
0.1075,10.810546875,-9.6494140625,-1.1611328125
0.108,9.3291015625,-8.888671875,0.48046875
0.1085,9.0087890625,-8.96875,1.76171875
0.109,6.166015625,-7.7275390625,4.083984375
0.1095,3.9638671875,-6.7265625,5.765625
0.11,1.681640625,-6.40625,8.328125
0.1105,-0.8408203125,-4.6845703125,9.529296875
0.111,-2.08203125,-3.8837890625,10.330078125
0.1115,-3.923828125,-2.5224609375,11.05078125
0.112,-5.9658203125,-0.2001953125,10.73046875
0.1125,-8.2080078125,1.841796875,10.6904296875
0.113,-10.5302734375,3.8037109375,10.5302734375
0.1135,-10.8505859375,4.96484375,9.048828125
0.114,-11.69140625,5.2451171875,9.208984375
0.1145,-11.611328125,6.6865234375,6.966796875
0.115,-11.05078125,7.6474609375,4.64453125
0.1155,-11.2109375,8.9287109375,2.482421875
0.116,-10.2099609375,9.2490234375,0.1201171875
0.1165,-9.048828125,8.48828125,-1.1611328125
0.117,-8.3681640625,8.3681640625,-2.5224609375
0.1175,-5.60546875,7.20703125,-4.8046875
0.118,-3.4833984375,6.3662109375,-6.56640625
0.1185,-1.1611328125,5.92578125,-9.048828125
0.119,1.12109375,4.2041015625,-9.9296875
0.1195,2.0419921875,3.68359375,-10.73046875
0.12,4.083984375,1.9619140625,-11.2109375
0.1205,6.0859375,-0.3203125,-10.9306640625
0.121,8.48828125,-2.3623046875,-10.9306640625
0.1215,10.5302734375,-4.244140625,-10.6103515625
0.122,10.6904296875,-5.044921875,-9.369140625
0.1225,11.4111328125,-5.365234375,-9.2490234375
0.123,11.291015625,-7.0068359375,-6.7666015625
0.1235,10.810546875,-7.8076171875,-4.6044921875
0.124,10.890625,-9.12890625,-2.40234375
0.1245,9.689453125,-9.0888671875,-0.240234375
0.125,8.7685546875,-8.328125,0.7607421875
0.1255,7.6474609375,-8.0478515625,2.3623046875
0.126,4.8447265625,-6.9267578125,4.64453125
0.1265,2.72265625,-6.2060546875,6.56640625
0.127,0.3603515625,-5.6455078125,8.9287109375
0.1275,-1.6015625,-3.9638671875,9.529296875
0.128,-2.4423828125,-3.443359375,10.169921875
0.1285,-4.6845703125,-1.4814453125,10.5302734375
0.129,-6.646484375,0.6806640625,10.2099609375
0.1295,-9.0087890625,2.6025390625,10.2099609375
0.13,-10.650390625,4.32421875,9.7294921875
0.1305,-10.6904296875,4.96484375,8.6083984375
0.131,-11.2509765625,5.4853515625,8.0478515625
0.1315,-11.1708984375,7.1669921875,5.4453125
0.132,-10.650390625,7.84765625,3.4833984375
0.1325,-10.6904296875,9.0888671875,1.2412109375
0.133,-9.3291015625,8.80859375,-0.8408203125
0.1335,-8.4482421875,8.0078125,-1.7216796875
0.134,-6.9267578125,7.6474609375,-3.5634765625
0.1345,-4.2041015625,6.646484375,-5.765625
0.135,-2.0419921875,5.92578125,-7.84765625
0.1355,0.3203125,5.2451171875,-10.009765625
0.136,1.9619140625,3.6435546875,-10.330078125
0.1365,2.8828125,2.8427734375,-10.8505859375
0.137,5.60546875,0.6005859375,-11.2109375
0.1375,7.3671875,-1.44140625,-10.8505859375
0.138,9.6494140625,-3.283203125,-10.7705078125
0.1385,11.0908203125,-4.8447265625,-10.1298828125
0.139,11.0107421875,-5.4853515625,-8.8486328125
0.1395,11.4912109375,-6.2861328125,-7.84765625
0.14,11.2509765625,-7.8876953125,-5.1650390625
0.1405,10.6904296875,-8.328125,-3.283203125
0.141,10.5703125,-9.4091796875,-1.041015625
0.1415,9.0888671875,-8.9287109375,0.9208984375
0.142,7.8876953125,-8.0078125,1.921875
0.1425,5.92578125,-7.6474609375,4.1240234375
0.143,3.3232421875,-6.56640625,6.24609375
0.1435,1.12109375,-5.7255859375,8.16796875
0.144,-1.2412109375,-4.9248046875,10.169921875
0.1445,-2.802734375,-3.2431640625,10.2099609375
0.145,-4.00390625,-2.162109375,10.5703125
0.1455,-6.88671875,0.2802734375,10.890625
0.146,-8.48828125,2.2421875,10.3701171875
0.1465,-10.41015625,3.84375,10.2099609375
0.147,-11.611328125,5.1650390625,9.44921875
0.1475,-11.37109375,5.9658203125,7.8076171875
0.148,-11.6513671875,6.9267578125,6.40625
0.1485,-11.4111328125,8.3681640625,3.8037109375
0.149,-10.5703125,8.568359375,1.921875
0.1495,-10.4501953125,9.4091796875,-0.2001953125
0.15,-8.728515625,8.6884765625,-2.1220703125
0.1505,-7.20703125,7.7275390625,-3.36328125
0.151,-5.0048828125,7.3671875,-5.765625
0.1515,-2.482421875,6.24609375,-7.767578125
0.152,-0.400390625,5.2451171875,-9.369140625
0.1525,1.8017578125,4.404296875,-11.2109375
0.153,3.4833984375,2.5224609375,-11.2509765625
0.1535,5.044921875,1.12109375,-11.451171875
0.154,7.927734375,-1.28125,-11.7314453125
0.1545,9.4091796875,-3.203125,-10.810546875
0.155,11.0107421875,-4.564453125,-10.6103515625
0.1555,12.01171875,-5.765625,-9.7294921875
0.156,11.611328125,-6.646484375,-7.8076171875
0.1565,11.69140625,-7.6474609375,-6.0859375
0.157,11.4912109375,-8.96875,-3.5634765625
0.1575,10.2900390625,-8.8486328125,-1.5615234375
0.158,10.2099609375,-9.4892578125,0.240234375
0.1585,8.1279296875,-8.6884765625,2.3623046875
0.159,6.3662109375,-7.6474609375,3.68359375
0.1595,4.0439453125,-7.1669921875,6.24609375
0.16,1.521484375,-6.0458984375,8.1279296875
0.1605,-0.48046875,-5.0048828125,9.4091796875
0.161,-2.482421875,-4.1240234375,11.0107421875
0.1615,-4.3642578125,-2.001953125,10.8505859375
0.162,-6.0458984375,-0.3203125,10.9306640625
0.1625,-8.888671875,1.9619140625,11.2109375
0.163,-10.1298828125,3.84375,10.08984375
0.1635,-11.4111328125,4.8046875,9.8896484375
0.164,-12.1318359375,6.005859375,8.80859375
0.1645,-11.5712890625,6.966796875,6.56640625
0.165,-11.5712890625,7.9677734375,4.64453125
0.1655,-11.37109375,9.208984375,2.2021484375
0.166,-9.9697265625,8.8486328125,0.240234375
0.1665,-9.9296875,9.2490234375,-1.3212890625
0.167,-7.52734375,8.328125,-3.5634765625
0.1675,-5.60546875,7.2470703125,-5.0048828125
0.168,-3.283203125,6.8466796875,-7.4873046875
0.1685,-0.80078125,5.4853515625,-9.2490234375
0.169,1.041015625,4.404296875,-10.2900390625
0.1695,2.8828125,3.5234375,-11.6513671875
0.17,4.884765625,1.3212890625,-11.451171875
0.1705,6.806640625,-0.640625,-11.4111328125
0.171,9.5693359375,-2.72265625,-11.69140625
0.1715,10.490234375,-4.564453125,-10.25
0.172,11.611328125,-5.1650390625,-10.25
0.1725,12.1318359375,-6.40625,-8.80859375
0.173,11.4912109375,-7.3671875,-6.4462890625
0.1735,11.4912109375,-8.48828125,-4.4443359375
0.174,11.130859375,-9.4892578125,-1.9619140625
0.1745,9.609375,-8.9287109375,-0.16015625
0.175,9.44921875,-9.12890625,1.2412109375
0.1755,6.8466796875,-8.0478515625,3.4833984375
0.176,4.7646484375,-7.046875,5.0849609375
0.1765,2.4423828125,-6.7265625,7.6875
0.177,0.0,-5.205078125,9.12890625
0.1775,-1.6416015625,-4.244140625,10.0498046875
0.178,-3.4033203125,-3.0830078125,11.130859375
0.1785,-5.4453125,-0.80078125,10.8505859375
0.179,-7.5673828125,1.2412109375,10.7705078125
0.1795,-10.1298828125,3.203125,10.890625
0.18,-10.7705078125,4.8046875,9.4091796875
0.1805,-11.7314453125,5.125,9.529296875
0.181,-11.931640625,6.5263671875,7.6474609375
0.1815,-11.3310546875,7.4873046875,5.28515625
0.182,-11.4111328125,8.6884765625,3.1630859375
0.1825,-10.7705078125,9.44921875,0.720703125
0.183,-9.3291015625,8.728515625,-0.9208984375
0.1835,-9.048828125,8.80859375,-2.2021484375
0.184,-6.24609375,7.6875,-4.5244140625
0.1845,-4.083984375,6.6865234375,-6.2861328125
0.185,-1.8017578125,6.326171875,-8.888671875
0.1855,0.7607421875,4.64453125,-10.1298828125
0.186,1.9619140625,3.84375,-10.890625
0.1865,3.84375,2.5224609375,-11.69140625
0.187,6.005859375,0.2001953125,-11.37109375
0.1875,8.2880859375,-1.9619140625,-11.3310546875
0.188,10.7705078125,-4.00390625,-11.2509765625
0.1885,11.05078125,-5.205078125,-9.7294921875
0.189,11.8115234375,-5.4453125,-9.76953125
0.1895,11.931640625,-7.046875,-7.52734375
0.19,11.291015625,-7.9677734375,-5.125
0.1905,11.37109375,-9.2890625,-2.8828125
0.191,10.4501953125,-9.689453125,-0.4404296875
0.1915,9.0888671875,-8.7685546875,0.880859375
0.192,8.4482421875,-8.6484375,2.2421875
0.1925,5.4453125,-7.5673828125,4.724609375
0.193,3.1630859375,-6.56640625,6.56640625
0.1935,0.80078125,-6.166015625,9.12890625
0.194,-1.6416015625,-4.32421875,10.08984375
0.1945,-2.5625,-3.5634765625,10.650390625
0.195,-4.6044921875,-1.921875,11.1708984375
0.1955,-6.806640625,0.560546875,10.810546875
0.196,-9.0888671875,2.5625,10.73046875
0.1965,-11.291015625,4.484375,10.490234375
0.197,-11.3310546875,5.4052734375,8.96875
0.1975,-11.8916015625,5.685546875,8.80859375
0.198,-11.8916015625,7.4072265625,6.166015625
0.1985,-11.2509765625,8.16796875,3.8837890625
0.199,-11.2509765625,9.44921875,1.5615234375
0.1995,-10.1298828125,9.5693359375,-0.80078125
0.2,-8.80859375,8.5283203125,-1.8818359375
0.2005,-7.7275390625,8.2080078125,-3.4033203125
0.201,-4.7646484375,7.0869140625,-5.92578125
0.2015,-2.482421875,6.1259765625,-7.84765625
0.202,0.0,5.685546875,-10.2900390625
0.2025,2.08203125,3.84375,-10.9306640625
0.203,2.9228515625,3.123046875,-11.291015625
0.2035,5.3251953125,1.12109375,-11.8115234375
0.204,7.447265625,-1.2412109375,-11.4111328125
0.2045,9.6494140625,-3.203125,-11.2109375
0.205,11.6513671875,-4.96484375,-10.8505859375
0.2055,11.53125,-5.8056640625,-9.2890625
0.206,11.9716796875,-6.24609375,-8.6884765625
0.2065,11.8515625,-8.0478515625,-5.8857421875
0.207,11.1708984375,-8.48828125,-3.8037109375
0.2075,11.05078125,-9.689453125,-1.44140625
0.208,9.849609375,-9.609375,0.720703125
0.2085,8.3681640625,-8.48828125,1.8017578125
0.209,6.88671875,-8.1279296875,3.6435546875
0.2095,3.8837890625,-7.0869140625,6.0859375
0.21,1.681640625,-6.0458984375,7.9677734375
0.2105,-0.80078125,-5.4052734375,10.25
0.211,-2.642578125,-3.5634765625,10.650390625
0.2115,-3.5634765625,-2.6025390625,10.8505859375
0.212,-6.2861328125,-0.3603515625,11.2509765625
0.2125,-8.2080078125,1.841796875,10.7705078125
0.213,-10.2099609375,3.6435546875,10.5302734375
0.2135,-11.8515625,5.0849609375,10.0498046875
0.214,-11.611328125,5.9658203125,8.328125
0.2145,-11.8916015625,6.56640625,7.3271484375
0.215,-11.8115234375,8.2880859375,4.5244140625
0.2155,-10.970703125,8.6484375,2.5625
0.216,-10.810546875,9.609375,0.3603515625
0.2165,-9.44921875,9.2490234375,-1.76171875
0.217,-7.84765625,8.087890625,-2.8828125
0.2175,-6.0458984375,7.6875,-5.044921875
0.218,-3.203125,6.6865234375,-7.3671875
0.2185,-1.12109375,5.60546875,-8.96875
0.219,1.28125,4.9248046875,-11.0908203125
0.2195,3.04296875,3.123046875,-11.3310546875
0.22,4.2841796875,1.8818359375,-11.4912109375
0.2205,7.1669921875,-0.6005859375,-11.8515625
0.221,8.888671875,-2.6025390625,-11.2109375
0.2215,10.6103515625,-4.2041015625,-10.810546875
0.222,12.01171875,-5.525390625,-10.2900390625
0.2225,11.69140625,-6.4462890625,-8.3681640625
0.223,11.8115234375,-7.20703125,-7.0068359375
0.2235,11.6513671875,-8.7685546875,-4.3642578125
0.224,10.73046875,-8.8486328125,-2.3623046875
