wavelength,x,y,z
0.0,9.26904296875,-5.90576171875,-3.26318359375
0.0005,9.26904296875,-4.62451171875,-4.66455078125
0.001,8.90869140625,-2.86279296875,-6.02587890625
0.0015,8.18798828125,-1.22119140625,-6.94677734375
0.002,7.38720703125,0.54052734375,-7.86767578125
0.0025,6.10595703125,2.46240234375,-8.58837890625
0.003,4.78466796875,4.46435546875,-9.22900390625
0.0035,2.90283203125,5.82568359375,-8.74853515625
0.004,1.38134765625,7.26708984375,-8.62841796875
0.0045,-0.26025390625,8.02783203125,-7.82763671875
0.005,-1.90185546875,8.78857421875,-7.02685546875
0.0055,-3.82373046875,9.54931640625,-5.86572265625
0.006,-5.14501953125,9.50927734375,-4.54443359375
0.0065,-6.38623046875,9.02880859375,-2.94287109375
0.007,-7.34716796875,8.38818359375,-1.34130859375
0.0075,-8.06787109375,7.50732421875,0.30029296875
0.008,-8.66845703125,6.30615234375,2.10205078125
0.0085,-9.34912109375,5.10498046875,3.98388671875
0.009,-9.02880859375,3.58349609375,5.22509765625
0.0095,-8.62841796875,1.82177734375,6.58642578125
0.01,-7.70751953125,0.14013671875,7.38720703125
0.0105,-6.82666015625,-1.74169921875,8.22802734375
0.011,-5.42529296875,-3.78369140625,8.86865234375
0.0115,-3.86376953125,-5.50537109375,9.06884765625
0.012,-2.06201171875,-6.74658203125,8.62841796875
0.0125,-0.62060546875,-7.94775390625,8.34814453125
0.013,1.02099609375,-8.66845703125,7.50732421875
0.0135,2.66259765625,-9.30908203125,6.54638671875
0.014,4.58447265625,-9.98974609375,5.42529296875
0.0145,5.70556640625,-9.58935546875,3.90380859375
0.015,7.02685546875,-9.26904296875,2.42236328125
0.0155,7.66748046875,-8.34814453125,0.82080078125
0.016,8.34814453125,-7.50732421875,-0.78076171875
0.0165,8.94873046875,-6.30615234375,-2.58251953125
0.017,9.46923828125,-5.14501953125,-4.26416015625
0.0175,8.90869140625,-3.50341796875,-5.42529296875
0.018,8.50830078125,-1.86181640625,-6.70654296875
0.0185,7.54736328125,-0.22021484375,-7.42724609375
0.019,6.66650390625,1.58154296875,-8.26806640625
0.0195,5.30517578125,3.66357421875,-9.02880859375
0.02,3.70361328125,5.26513671875,-8.82861328125
0.0205,1.98193359375,6.62646484375,-8.58837890625
0.021,0.54052734375,7.62744140625,-8.06787109375
0.0215,-1.10107421875,8.38818359375,-7.34716796875
0.022,-2.82275390625,9.02880859375,-6.34619140625
0.0225,-4.50439453125,9.58935546875,-5.22509765625
0.023,-5.58544921875,8.98876953125,-3.62353515625
0.0235,-6.90673828125,8.70849609375,-2.10205078125
0.024,-7.50732421875,7.74755859375,-0.58056640625
0.0245,-8.26806640625,6.78662109375,1.14111328125
0.025,-8.94873046875,5.70556640625,2.98291015625
0.0255,-9.10888671875,4.42431640625,4.46435546875
0.026,-8.58837890625,2.70263671875,5.70556640625
0.0265,-8.02783203125,0.98095703125,6.78662109375
0.027,-7.22705078125,-0.70068359375,7.62744140625
0.0275,-6.10595703125,-2.54248046875,8.30810546875
0.028,-4.66455078125,-4.50439453125,8.94873046875
0.0285,-2.94287109375,-5.82568359375,8.50830078125
0.029,-1.46142578125,-7.22705078125,8.46826171875
0.0295,0.14013671875,-8.02783203125,7.74755859375
0.03,1.66162109375,-8.78857421875,6.98681640625
0.0305,3.46337890625,-9.50927734375,5.98583984375
0.031,4.86474609375,-9.66943359375,4.82470703125
0.0315,6.02587890625,-9.18896484375,3.22314453125
0.032,7.06689453125,-8.70849609375,1.78173828125
0.0325,7.70751953125,-7.82763671875,0.26025390625
0.033,8.42822265625,-6.90673828125,-1.46142578125
0.0335,9.10888671875,-5.82568359375,-3.22314453125
0.034,8.98876953125,-4.38427734375,-4.54443359375
0.0345,8.58837890625,-2.82275390625,-5.82568359375
0.035,7.86767578125,-1.18115234375,-6.74658203125
0.0355,7.10693359375,0.54052734375,-7.70751953125
0.036,6.02587890625,2.50244140625,-8.46826171875
0.0365,4.62451171875,4.34423828125,-8.86865234375
0.037,2.82275390625,5.62548828125,-8.38818359375
0.0375,1.42138671875,6.94677734375,-8.30810546875
0.038,-0.18017578125,7.74755859375,-7.62744140625
0.0385,-1.78173828125,8.46826171875,-6.82666015625
0.039,-3.58349609375,9.26904296875,-5.86572265625
0.0395,-4.82470703125,8.98876953125,-4.42431640625
0.04,-6.10595703125,8.78857421875,-2.94287109375
0.0405,-6.98681640625,8.06787109375,-1.42138671875
0.041,-7.74755859375,7.22705078125,0.26025390625
0.0415,-8.46826171875,6.22607421875,1.94189453125
0.042,-9.02880859375,5.10498046875,3.66357421875
0.0425,-8.62841796875,3.50341796875,4.86474609375
0.043,-8.30810546875,1.78173828125,6.26611328125
0.0435,-7.42724609375,0.14013671875,7.06689453125
0.044,-6.58642578125,-1.58154296875,7.94775390625
0.0445,-5.30517578125,-3.54345703125,8.62841796875
0.045,-3.78369140625,-5.14501953125,8.66845703125
0.0455,-2.10205078125,-6.46630859375,8.38818359375
0.046,-0.70068359375,-7.54736328125,8.02783203125
0.0465,0.94091796875,-8.30810546875,7.30712890625
0.047,2.54248046875,-9.06884765625,6.42626953125
0.0475,4.30419921875,-9.70947265625,5.42529296875
0.048,5.38525390625,-9.18896484375,3.86376953125
0.0485,6.66650390625,-8.98876953125,2.42236328125
0.049,7.38720703125,-8.14794921875,0.90087890625
0.0495,8.10791015625,-7.26708984375,-0.78076171875
0.05,8.82861328125,-6.26611328125,-2.50244140625
0.0505,9.10888671875,-5.06494140625,-4.06396484375
0.051,8.66845703125,-3.42333984375,-5.26513671875
0.0515,8.18798828125,-1.82177734375,-6.46630859375
0.052,7.38720703125,-0.14013671875,-7.26708984375
0.0525,6.42626953125,1.74169921875,-8.14794921875
0.053,5.14501953125,3.74365234375,-8.82861328125
0.0535,3.46337890625,5.14501953125,-8.54833984375
0.054,1.90185546875,6.58642578125,-8.46826171875
0.0545,0.38037109375,7.50732421875,-7.86767578125
0.055,-1.22119140625,8.30810546875,-7.10693359375
0.0555,-2.94287109375,9.02880859375,-6.22607421875
0.056,-4.50439453125,9.26904296875,-4.98486328125
0.0565,-5.62548828125,8.78857421875,-3.38330078125
0.057,-6.82666015625,8.38818359375,-1.86181640625
0.0575,-7.50732421875,7.50732421875,-0.30029296875
0.058,-8.26806640625,6.54638671875,1.42138671875
0.0585,-8.94873046875,5.42529296875,3.22314453125
0.059,-8.86865234375,3.98388671875,4.62451171875
0.0595,-8.46826171875,2.26220703125,5.90576171875
0.06,-7.74755859375,0.62060546875,6.90673828125
0.0605,-6.90673828125,-1.14111328125,7.74755859375
0.061,-5.74560546875,-2.94287109375,8.50830078125
0.0615,-4.22412109375,-4.90478515625,8.86865234375
0.062,-2.50244140625,-6.14599609375,8.42822265625
0.0625,-1.02099609375,-7.50732421875,8.30810546875
0.063,0.62060546875,-8.26806640625,7.50732421875
0.0635,2.22216796875,-8.98876953125,6.70654296875
0.064,3.98388671875,-9.74951171875,5.70556640625
0.0645,5.22509765625,-9.46923828125,4.30419921875
0.065,6.46630859375,-9.10888671875,2.74267578125
0.0655,7.38720703125,-8.46826171875,1.22119140625
0.066,8.02783203125,-7.50732421875,-0.50048828125
0.0665,8.70849609375,-6.58642578125,-2.10205078125
0.067,9.30908203125,-5.42529296875,-3.94384765625
0.0675,8.82861328125,-3.74365234375,-5.14501953125
0.068,8.46826171875,-2.06201171875,-6.38623046875
0.0685,7.62744140625,-0.38037109375,-7.22705078125
0.069,6.70654296875,1.42138671875,-8.06787109375
0.0695,5.50537109375,3.38330078125,-8.82861328125
0.07,3.86376953125,5.10498046875,-8.90869140625
0.0705,2.18212890625,6.38623046875,-8.46826171875
0.071,0.66064453125,7.54736328125,-8.18798828125
0.0715,-1.02099609375,8.26806640625,-7.30712890625
0.072,-2.66259765625,8.94873046875,-6.38623046875
0.0725,-4.42431640625,9.58935546875,-5.34521484375
0.073,-5.54541015625,8.98876953125,-3.70361328125
0.0735,-6.82666015625,8.70849609375,-2.18212890625
0.074,-7.54736328125,7.74755859375,-0.58056640625
0.0745,-8.18798828125,6.74658203125,1.14111328125
0.075,-8.90869140625,5.74560546875,2.86279296875
0.0755,-9.22900390625,4.34423828125,4.54443359375
0.076,-8.54833984375,2.62255859375,5.74560546875
0.0765,-8.14794921875,0.98095703125,7.02685546875
0.077,-7.06689453125,-0.82080078125,7.66748046875
0.0775,-6.10595703125,-2.58251953125,8.46826171875
0.078,-4.66455078125,-4.58447265625,8.98876953125
0.0785,-2.90283203125,-6.02587890625,8.66845703125
0.079,-1.34130859375,-7.30712890625,8.42822265625
0.0795,0.26025390625,-8.18798828125,7.78759765625
0.08,1.94189453125,-8.90869140625,6.86669921875
0.0805,3.58349609375,-9.54931640625,5.90576171875
0.081,5.10498046875,-9.82958984375,4.74462890625
0.0815,6.22607421875,-9.18896484375,3.06298828125
0.082,7.34716796875,-8.78857421875,1.58154296875
0.0825,7.90771484375,-7.82763671875,0.02001953125
0.083,8.58837890625,-6.86669921875,-1.70166015625
0.0835,9.26904296875,-5.82568359375,-3.46337890625
0.084,9.10888671875,-4.18408203125,-4.86474609375
0.0845,8.54833984375,-2.58251953125,-5.98583984375
0.085,7.90771484375,-0.90087890625,-7.06689453125
0.0855,6.90673828125,0.90087890625,-7.74755859375
0.086,5.94580078125,2.70263671875,-8.58837890625
0.0865,4.50439453125,4.58447265625,-8.94873046875
0.087,2.66259765625,5.86572265625,-8.50830078125
0.0875,1.22119140625,7.14697265625,-8.30810546875
0.088,-0.46044921875,7.98779296875,-7.54736328125
0.0885,-2.06201171875,8.66845703125,-6.70654296875
0.089,-3.74365234375,9.30908203125,-5.74560546875
0.0895,-5.06494140625,9.14892578125,-4.34423828125
0.09,-6.26611328125,8.70849609375,-2.74267578125
0.0905,-7.22705078125,8.06787109375,-1.22119140625
0.091,-7.82763671875,7.06689453125,0.46044921875
0.0915,-8.50830078125,6.14599609375,2.06201171875
0.092,-9.10888671875,5.10498046875,3.82373046875
0.0925,-8.62841796875,3.34326171875,5.10498046875
0.093,-8.30810546875,1.78173828125,6.34619140625
0.0935,-7.38720703125,0.02001953125,7.18701171875
0.094,-6.46630859375,-1.74169921875,7.98779296875
0.0945,-5.30517578125,-3.54345703125,8.58837890625
0.095,-3.74365234375,-5.22509765625,8.70849609375
0.0955,-2.10205078125,-6.46630859375,8.30810546875
0.096,-0.62060546875,-7.66748046875,8.02783203125
0.0965,1.02099609375,-8.34814453125,7.18701171875
0.097,2.58251953125,-9.02880859375,6.38623046875
0.0975,4.18408203125,-9.62939453125,5.42529296875
0.098,5.38525390625,-9.18896484375,3.90380859375
0.0985,6.54638671875,-8.94873046875,2.46240234375
0.099,7.34716796875,-8.18798828125,0.90087890625
0.0995,7.98779296875,-7.22705078125,-0.70068359375
0.1,8.70849609375,-6.38623046875,-2.26220703125
0.1005,9.10888671875,-5.10498046875,-3.94384765625
0.101,8.50830078125,-3.46337890625,-5.14501953125
0.1015,8.18798828125,-1.86181640625,-6.38623046875
0.102,7.30712890625,-0.14013671875,-7.18701171875
0.1025,6.46630859375,1.58154296875,-8.02783203125
0.103,5.26513671875,3.46337890625,-8.70849609375
0.1035,3.58349609375,5.02490234375,-8.50830078125
0.104,2.06201171875,6.30615234375,-8.30810546875
0.1045,0.54052734375,7.38720703125,-7.86767578125
0.105,-1.14111328125,8.10791015625,-7.06689453125
0.1055,-2.70263671875,8.82861328125,-6.26611328125
0.106,-4.26416015625,9.22900390625,-5.14501953125
0.1065,-5.42529296875,8.66845703125,-3.54345703125
0.107,-6.58642578125,8.30810546875,-2.06201171875
0.1075,-7.34716796875,7.42724609375,-0.50048828125
0.108,-8.10791015625,6.58642578125,1.22119140625
0.1085,-8.78857421875,5.66552734375,2.86279296875
0.109,-8.82861328125,4.18408203125,4.46435546875
0.1095,-8.30810546875,2.50244140625,5.62548828125
0.11,-7.78759765625,0.82080078125,6.78662109375
0.1105,-6.74658203125,-0.98095703125,7.50732421875
0.111,-5.86572265625,-2.70263671875,8.30810546875
0.1115,-4.42431640625,-4.54443359375,8.70849609375
0.112,-2.70263671875,-5.90576171875,8.38818359375
0.1125,-1.26123046875,-7.18701171875,8.18798828125
0.113,0.42041015625,-8.06787109375,7.54736328125
0.1135,2.06201171875,-8.82861328125,6.66650390625
0.114,3.66357421875,-9.46923828125,5.78564453125
0.1145,5.06494140625,-9.50927734375,4.50439453125
0.115,6.18603515625,-9.02880859375,2.90283203125
0.1155,7.22705078125,-8.54833984375,1.34130859375
0.116,7.82763671875,-7.46728515625,-0.30029296875
0.1165,8.62841796875,-6.66650390625,-1.94189453125
0.117,9.22900390625,-5.58544921875,-3.62353515625
0.1175,8.82861328125,-3.82373046875,-4.98486328125
0.118,8.42822265625,-2.26220703125,-6.18603515625
0.1185,7.70751953125,-0.50048828125,-7.18701171875
0.119,6.62646484375,1.42138671875,-7.98779296875
0.1195,5.62548828125,3.18310546875,-8.78857421875
0.12,3.98388671875,4.98486328125,-8.94873046875
0.1205,2.26220703125,6.30615234375,-8.50830078125
0.121,0.70068359375,7.54736328125,-8.22802734375
0.1215,-1.14111328125,8.30810546875,-7.30712890625
0.122,-2.78271484375,9.02880859375,-6.38623046875
0.1225,-4.42431640625,9.54931640625,-5.26513671875
0.123,-5.70556640625,9.10888671875,-3.74365234375
0.1235,-6.82666015625,8.62841796875,-2.14208984375
0.124,-7.78759765625,7.90771484375,-0.46044921875
0.1245,-8.34814453125,6.62646484375,1.46142578125
0.125,-9.06884765625,5.74560546875,3.10302734375
0.1255,-9.42919921875,4.38427734375,4.82470703125
0.126,-8.66845703125,2.42236328125,6.10595703125
0.1265,-8.26806640625,0.74072265625,7.34716796875
0.127,-7.06689453125,-1.26123046875,8.06787109375
0.1275,-5.82568359375,-3.22314453125,8.82861328125
0.128,-4.42431640625,-5.06494140625,9.22900390625
0.1285,-2.62255859375,-6.62646484375,9.02880859375
0.129,-0.94091796875,-7.78759765625,8.50830078125
0.1295,0.78076171875,-8.82861328125,7.94775390625
0.13,2.78271484375,-9.50927734375,6.62646484375
0.1305,4.42431640625,-10.10986328125,5.62548828125
0.131,5.94580078125,-10.31005859375,4.34423828125
0.1315,7.06689453125,-9.62939453125,2.62255859375
0.132,8.02783203125,-8.90869140625,0.98095703125
0.1325,8.74853515625,-7.78759765625,-0.94091796875
0.133,9.26904296875,-6.38623046875,-2.86279296875
0.1335,9.78955078125,-5.38525390625,-4.42431640625
0.134,9.74951171875,-3.70361328125,-6.02587890625
0.1345,8.78857421875,-1.78173828125,-7.06689453125
0.135,8.14794921875,0.06005859375,-8.14794921875
0.1355,6.62646484375,2.22216796875,-8.78857421875
0.136,5.34521484375,4.18408203125,-9.46923828125
0.1365,3.70361328125,5.94580078125,-9.62939453125
0.137,1.78173828125,7.38720703125,-9.10888671875
0.1375,0.10009765625,8.38818359375,-8.46826171875
0.138,-1.82177734375,9.30908203125,-7.54736328125
0.1385,-3.86376953125,9.82958984375,-6.14599609375
0.139,-5.42529296875,10.14990234375,-4.98486328125
0.1395,-6.78662109375,9.90966796875,-3.46337890625
0.14,-7.82763671875,9.10888671875,-1.62158203125
0.1405,-8.66845703125,8.30810546875,0.10009765625
0.141,-9.22900390625,6.78662109375,2.14208984375
0.1415,-9.70947265625,5.46533203125,3.98388671875
0.142,-9.90966796875,4.18408203125,5.46533203125
0.1425,-9.38916015625,2.26220703125,6.98681640625
0.143,-8.46826171875,0.34033203125,7.94775390625
0.1435,-7.50732421875,-1.58154296875,8.82861328125
0.144,-5.74560546875,-3.86376953125,9.34912109375
0.1445,-4.34423828125,-5.70556640625,9.74951171875
0.145,-2.50244140625,-7.30712890625,9.54931640625
0.1455,-0.70068359375,-8.38818359375,8.90869140625
0.146,0.98095703125,-9.30908203125,8.18798828125
0.1465,2.94287109375,-10.02978515625,6.94677734375
0.147,4.86474609375,-10.51025390625,5.58544921875
0.1475,6.22607421875,-10.59033203125,4.34423828125
0.148,7.50732421875,-10.06982421875,2.70263671875
0.1485,8.26806640625,-9.10888671875,0.98095703125
0.149,9.02880859375,-8.18798828125,-0.78076171875
0.1495,9.42919921875,-6.58642578125,-2.70263671875
0.15,9.86962890625,-5.46533203125,-4.34423828125
0.1505,9.90966796875,-4.10400390625,-5.74560546875
0.151,9.10888671875,-2.10205078125,-7.02685546875
0.1515,8.26806640625,-0.42041015625,-7.86767578125
0.152,7.14697265625,1.58154296875,-8.66845703125
0.1525,5.62548828125,3.70361328125,-9.26904296875
0.153,4.34423828125,5.26513671875,-9.50927734375
0.1535,2.42236328125,6.82666015625,-9.22900390625
0.154,0.78076171875,7.86767578125,-8.58837890625
0.1545,-0.86083984375,8.78857421875,-7.86767578125
0.155,-2.78271484375,9.26904296875,-6.66650390625
0.1555,-4.42431640625,9.78955078125,-5.46533203125
0.156,-5.70556640625,9.74951171875,-4.30419921875
0.1565,-6.82666015625,9.18896484375,-2.62255859375
0.157,-7.70751953125,8.38818359375,-1.06103515625
0.1575,-8.42822265625,7.42724609375,0.70068359375
0.158,-8.86865234375,6.06591796875,2.54248046875
0.1585,-9.34912109375,5.14501953125,3.94384765625
0.159,-9.26904296875,3.62353515625,5.42529296875
0.1595,-8.46826171875,1.74169921875,6.54638671875
0.16,-7.82763671875,0.06005859375,7.58740234375
0.1605,-6.54638671875,-1.86181640625,8.18798828125
0.161,-5.42529296875,-3.66357421875,8.82861328125
0.1615,-3.98388671875,-5.14501953125,8.98876953125
0.162,-2.30224609375,-6.62646484375,8.66845703125
0.1625,-0.82080078125,-7.62744140625,8.22802734375
0.163,0.86083984375,-8.62841796875,7.54736328125
0.1635,2.46240234375,-9.14892578125,6.50634765625
0.164,3.94384765625,-9.62939453125,5.66552734375
0.1645,5.18505859375,-9.54931640625,4.38427734375
0.165,6.30615234375,-9.06884765625,2.86279296875
0.1655,7.22705078125,-8.42822265625,1.34130859375
0.166,7.86767578125,-7.50732421875,-0.30029296875
0.1665,8.54833984375,-6.58642578125,-1.90185546875
0.167,9.02880859375,-5.74560546875,-3.22314453125
0.1675,8.86865234375,-4.10400390625,-4.74462890625
0.168,8.30810546875,-2.54248046875,-5.74560546875
0.1685,7.74755859375,-0.78076171875,-6.94677734375
0.169,6.66650390625,0.98095703125,-7.62744140625
0.1695,5.86572265625,2.70263671875,-8.46826171875
0.17,4.42431640625,4.18408203125,-8.54833984375
0.1705,2.74267578125,5.50537109375,-8.38818359375
0.171,1.38134765625,6.70654296875,-8.02783203125
0.1715,-0.26025390625,7.54736328125,-7.54736328125
0.172,-1.86181640625,8.38818359375,-6.66650390625
0.1725,-3.18310546875,8.90869140625,-5.90576171875
0.173,-4.50439453125,8.78857421875,-4.50439453125
0.1735,-5.62548828125,8.42822265625,-3.06298828125
0.174,-6.74658203125,7.94775390625,-1.50146484375
0.1745,-7.34716796875,6.98681640625,0.14013671875
0.175,-8.26806640625,6.34619140625,1.66162109375
0.1755,-8.66845703125,5.30517578125,3.06298828125
0.176,-8.30810546875,3.58349609375,4.54443359375
0.1765,-7.98779296875,2.06201171875,5.70556640625
0.177,-7.30712890625,0.34033203125,6.78662109375
0.1775,-6.38623046875,-1.42138671875,7.58740234375
0.178,-5.46533203125,-3.06298828125,8.26806640625
0.1785,-3.98388671875,-4.74462890625,8.22802734375
0.179,-2.46240234375,-5.94580078125,8.14794921875
0.1795,-0.98095703125,-7.10693359375,7.82763671875
0.18,0.62060546875,-7.86767578125,7.14697265625
0.1805,2.18212890625,-8.78857421875,6.50634765625
0.181,3.38330078125,-9.10888671875,5.66552734375
0.1815,4.82470703125,-8.94873046875,4.14404296875
0.182,5.82568359375,-8.58837890625,2.78271484375
0.1825,6.90673828125,-8.02783203125,1.22119140625
0.183,7.62744140625,-7.18701171875,-0.38037109375
0.1835,8.50830078125,-6.58642578125,-1.86181640625
0.184,8.70849609375,-5.30517578125,-3.34326171875
0.1845,8.30810546875,-3.70361328125,-4.62451171875
0.185,7.94775390625,-2.06201171875,-5.90576171875
0.1855,7.22705078125,-0.42041015625,-6.82666015625
0.186,6.42626953125,1.42138671875,-7.82763671875
0.1865,5.26513671875,2.86279296875,-8.38818359375
0.187,3.70361328125,4.62451171875,-8.30810546875
0.1875,2.30224609375,5.82568359375,-8.14794921875
0.188,0.74072265625,7.06689453125,-7.74755859375
0.1885,-0.98095703125,7.82763671875,-6.98681640625
0.189,-2.50244140625,8.66845703125,-6.34619140625
0.1895,-3.78369140625,8.70849609375,-5.14501953125
0.19,-5.14501953125,8.54833984375,-3.62353515625
0.1905,-6.22607421875,8.10791015625,-2.18212890625
0.191,-7.10693359375,7.34716796875,-0.54052734375
0.1915,-7.94775390625,6.54638671875,1.18115234375
0.192,-8.62841796875,5.74560546875,2.62255859375
0.1925,-8.58837890625,4.14404296875,4.22412109375
0.193,-8.14794921875,2.50244140625,5.42529296875
0.1935,-7.62744140625,0.78076171875,6.66650390625
0.194,-6.58642578125,-1.06103515625,7.42724609375
0.1945,-5.74560546875,-3.06298828125,8.22802734375
0.195,-4.22412109375,-4.46435546875,8.38818359375
0.1955,-2.58251953125,-5.94580078125,8.30810546875
0.196,-1.18115234375,-7.02685546875,7.98779296875
0.1965,0.54052734375,-8.02783203125,7.38720703125
0.197,2.26220703125,-8.82861328125,6.46630859375
0.1975,3.70361328125,-9.34912109375,5.62548828125
0.198,5.06494140625,-9.26904296875,4.22412109375
0.1985,6.14599609375,-8.82861328125,2.70263671875
0.199,7.22705078125,-8.26806640625,1.14111328125
