wavelength,x,y,z
0.0,-4.4443359375,2.482421875,1.4814453125
0.0005,-4.5244140625,1.6015625,2.40234375
0.001,-4.32421875,0.9208984375,2.8427734375
0.0015,-3.84375,-0.1201171875,3.3232421875
0.002,-3.5634765625,-0.80078125,3.763671875
0.0025,-2.9228515625,-1.681640625,4.00390625
0.003,-2.482421875,-2.3623046875,4.2041015625
0.0035,-1.681640625,-3.203125,4.2041015625
0.004,-0.80078125,-3.4833984375,3.6435546875
0.0045,-0.240234375,-4.0439453125,3.603515625
0.005,0.7607421875,-4.2841796875,2.8427734375
0.0055,1.521484375,-4.6044921875,2.482421875
0.006,2.3623046875,-4.64453125,1.6416015625
0.0065,2.9228515625,-4.5244140625,1.0009765625
0.007,3.203125,-3.9638671875,0.2001953125
0.0075,3.6435546875,-3.923828125,-0.2802734375
0.008,3.763671875,-3.1630859375,-1.1611328125
0.0085,3.9638671875,-2.8828125,-1.76171875
0.009,4.0439453125,-2.0419921875,-2.6025390625
0.0095,3.5634765625,-1.2412109375,-2.962890625
0.01,3.3232421875,-0.3203125,-3.4833984375
0.0105,2.8427734375,0.48046875,-3.763671875
0.011,2.2822265625,1.28125,-4.00390625
0.0115,1.76171875,1.921875,-4.1240234375
0.012,1.0009765625,2.6025390625,-4.00390625
0.0125,0.2001953125,2.8828125,-3.4833984375
0.013,-0.3603515625,3.443359375,-3.4833984375
0.0135,-1.44140625,3.6435546875,-2.6025390625
0.014,-2.001953125,3.923828125,-2.322265625
0.0145,-2.8828125,3.9638671875,-1.4814453125
0.015,-3.2431640625,3.68359375,-0.8408203125
0.0155,-3.6435546875,3.36328125,-0.16015625
0.016,-3.9638671875,3.123046875,0.3603515625
0.0165,-4.1640625,2.482421875,1.201171875
0.017,-4.32421875,1.9619140625,1.76171875
0.0175,-4.404296875,1.28125,2.5224609375
0.018,-3.8037109375,0.3603515625,2.8828125
0.0185,-3.763671875,-0.3203125,3.5234375
0.019,-3.0029296875,-1.28125,3.68359375
0.0195,-2.72265625,-1.9619140625,4.0439453125
0.02,-1.9619140625,-2.642578125,4.00390625
0.0205,-1.28125,-3.203125,3.84375
0.021,-0.48046875,-3.5634765625,3.36328125
0.0215,0.16015625,-4.083984375,3.2431640625
0.022,1.28125,-4.244140625,2.40234375
0.0225,1.8017578125,-4.5244140625,2.0419921875
0.023,2.6025390625,-4.484375,1.28125
0.0235,2.8828125,-4.0439453125,0.6005859375
0.024,3.3232421875,-3.84375,0.0
0.0245,3.5234375,-3.4033203125,-0.720703125
0.025,3.763671875,-2.962890625,-1.44140625
0.0255,3.8037109375,-2.3623046875,-2.08203125
0.026,3.84375,-1.6416015625,-2.72265625
0.0265,3.1630859375,-0.640625,-3.04296875
0.027,3.1630859375,0.0,-3.603515625
0.0275,2.322265625,1.0009765625,-3.763671875
0.028,2.162109375,1.5615234375,-4.1240234375
0.0285,1.28125,2.2421875,-4.00390625
0.029,0.560546875,2.72265625,-3.7236328125
0.0295,-0.16015625,3.1630859375,-3.36328125
0.03,-0.9609375,3.5634765625,-3.04296875
0.0305,-1.9619140625,3.8037109375,-2.2822265625
0.031,-2.4423828125,3.8837890625,-1.8818359375
0.0315,-3.203125,3.8837890625,-1.12109375
0.032,-3.443359375,3.36328125,-0.3603515625
0.0325,-3.8837890625,3.2431640625,0.1201171875
0.033,-4.1240234375,2.5625,1.0009765625
0.0335,-4.3642578125,2.2421875,1.5615234375
0.034,-4.244140625,1.4814453125,2.2822265625
0.0345,-4.1640625,0.7607421875,2.8828125
0.035,-3.5634765625,-0.2802734375,3.283203125
0.0355,-3.5234375,-0.9208984375,3.84375
0.036,-2.5625,-2.0419921875,3.9638671875
0.0365,-2.2822265625,-2.5224609375,4.1240234375
0.037,-1.4013671875,-3.2431640625,3.9638671875
0.0375,-0.6005859375,-3.68359375,3.5634765625
0.038,0.1201171875,-4.0439453125,3.283203125
0.0385,1.12109375,-4.404296875,2.6826171875
0.039,2.0419921875,-4.6044921875,1.9619140625
0.0395,2.5224609375,-4.484375,1.361328125
0.04,3.1630859375,-4.3642578125,0.640625
0.0405,3.283203125,-3.8037109375,-0.16015625
0.041,3.68359375,-3.68359375,-0.640625
0.0415,3.8037109375,-2.7626953125,-1.6416015625
0.042,3.923828125,-2.40234375,-2.08203125
0.0425,3.7236328125,-1.5615234375,-2.72265625
0.043,3.4833984375,-0.7607421875,-3.203125
0.0435,2.8427734375,0.1201171875,-3.5234375
0.044,2.6025390625,0.80078125,-3.8837890625
0.0445,1.8818359375,1.76171875,-4.0439453125
0.045,1.44140625,2.2021484375,-4.0439453125
0.0455,0.6005859375,2.8828125,-3.8837890625
0.046,-0.2001953125,3.1630859375,-3.36328125
0.0465,-0.80078125,3.6435546875,-3.203125
0.047,-1.921875,3.8837890625,-2.40234375
0.0475,-2.6025390625,4.1240234375,-1.921875
0.048,-3.1630859375,3.84375,-1.1611328125
0.0485,-3.7236328125,3.763671875,-0.5205078125
0.049,-3.8837890625,3.123046875,0.240234375
0.0495,-4.32421875,3.0029296875,0.7607421875
0.05,-4.5244140625,2.162109375,1.841796875
0.0505,-4.5244140625,1.76171875,2.2822265625
0.051,-4.3642578125,0.80078125,3.04296875
0.0515,-3.8837890625,-0.1201171875,3.4833984375
0.052,-3.4033203125,-1.0009765625,3.84375
0.0525,-2.8828125,-1.8818359375,4.1640625
0.053,-2.2021484375,-2.8427734375,4.404296875
0.0535,-1.521484375,-3.203125,4.083984375
0.054,-0.640625,-3.923828125,3.9638671875
0.0545,0.240234375,-4.1640625,3.283203125
0.055,0.9208984375,-4.64453125,3.0830078125
0.0555,2.162109375,-4.8447265625,2.0419921875
0.056,2.8427734375,-4.884765625,1.44140625
0.0565,3.3232421875,-4.5244140625,0.560546875
0.057,3.763671875,-4.32421875,-0.16015625
0.0575,3.84375,-3.603515625,-0.9208984375
0.058,4.1240234375,-3.203125,-1.4814453125
0.0585,4.2841796875,-2.2822265625,-2.5625
0.059,4.00390625,-1.6416015625,-2.8828125
0.0595,3.763671875,-0.6806640625,-3.5634765625
0.06,3.123046875,0.240234375,-3.763671875
0.0605,2.6826171875,0.9609375,-4.083984375
0.061,1.921875,1.921875,-4.244140625
0.0615,1.3212890625,2.6826171875,-4.404296875
0.062,0.560546875,2.962890625,-3.84375
0.0625,-0.2001953125,3.5634765625,-3.8037109375
0.063,-1.041015625,3.68359375,-3.04296875
0.0635,-1.7216796875,4.1240234375,-2.7626953125
0.064,-2.9228515625,4.244140625,-1.76171875
0.0645,-3.36328125,4.1240234375,-1.2412109375
0.065,-3.8837890625,3.7236328125,-0.3603515625
0.0655,-4.244140625,3.4833984375,0.2802734375
0.066,-4.484375,3.0029296875,0.9609375
0.0665,-4.64453125,2.482421875,1.681640625
0.067,-4.884765625,1.7216796875,2.6826171875
0.0675,-4.484375,0.9208984375,3.0029296875
0.068,-4.3642578125,0.0400390625,3.8037109375
0.0685,-3.5634765625,-1.041015625,3.9638671875
0.069,-3.283203125,-1.76171875,4.4443359375
0.0695,-2.322265625,-2.8427734375,4.5244140625
0.07,-1.681640625,-3.5634765625,4.6044921875
0.0705,-0.6806640625,-3.923828125,3.9638671875
0.071,0.0400390625,-4.6044921875,3.8837890625
0.0715,1.041015625,-4.724609375,3.04296875
0.072,1.8017578125,-5.0849609375,2.6025390625
0.0725,3.123046875,-5.28515625,1.521484375
0.073,3.5234375,-4.884765625,0.720703125
0.0735,4.0439453125,-4.5244140625,-0.16015625
0.074,4.244140625,-4.00390625,-0.8408203125
0.0745,4.32421875,-3.3232421875,-1.6015625
0.075,4.4443359375,-2.5625,-2.40234375
0.0755,4.6044921875,-1.76171875,-3.36328125
0.076,3.8037109375,-0.720703125,-3.5634765625
0.0765,3.68359375,0.080078125,-4.2041015625
0.077,2.72265625,1.041015625,-4.2041015625
0.0775,2.40234375,1.7216796875,-4.484375
0.078,1.4013671875,2.802734375,-4.5244140625
0.0785,0.6806640625,3.3232421875,-4.3642578125
0.079,-0.2802734375,3.6435546875,-3.7236328125
0.0795,-0.9208984375,4.083984375,-3.5634765625
0.08,-1.8818359375,4.1640625,-2.72265625
0.0805,-2.5625,4.32421875,-2.2822265625
0.081,-3.7236328125,4.484375,-1.28125
0.0815,-3.923828125,3.8837890625,-0.5205078125
0.082,-4.4443359375,3.8037109375,0.240234375
0.0825,-4.5244140625,3.1630859375,0.9609375
0.083,-4.7646484375,2.72265625,1.5615234375
0.0835,-4.8447265625,1.8818359375,2.4423828125
0.084,-4.96484375,1.2412109375,3.203125
0.0845,-4.1640625,0.1201171875,3.5234375
0.085,-4.1640625,-0.640625,4.1640625
0.0855,-3.1630859375,-1.681640625,4.2841796875
0.086,-2.8828125,-2.3623046875,4.6044921875
0.0865,-1.841796875,-3.5234375,4.6845703125
0.087,-1.041015625,-3.8837890625,4.32421875
0.0875,-0.16015625,-4.3642578125,3.84375
0.088,0.640625,-4.8046875,3.5234375
0.0885,1.6416015625,-5.044921875,2.6025390625
0.089,2.40234375,-5.1650390625,2.0419921875
0.0895,3.5234375,-5.28515625,1.041015625
0.09,3.763671875,-4.5244140625,0.16015625
0.0905,4.244140625,-4.404296875,-0.48046875
0.091,4.32421875,-3.5634765625,-1.3212890625
0.0915,4.484375,-3.0830078125,-1.9619140625
0.092,4.484375,-2.1220703125,-2.8828125
0.0925,4.404296875,-1.3212890625,-3.603515625
0.093,3.5634765625,-0.2001953125,-3.8837890625
0.0935,3.443359375,0.5205078125,-4.3642578125
0.094,2.40234375,1.5615234375,-4.404296875
0.0945,2.0419921875,2.162109375,-4.6044921875
0.095,1.041015625,3.203125,-4.64453125
0.0955,0.1201171875,3.5234375,-4.00390625
0.096,-0.640625,3.9638671875,-3.7236328125
0.0965,-1.521484375,4.1640625,-3.123046875
0.097,-2.40234375,4.32421875,-2.40234375
0.0975,-3.1630859375,4.3642578125,-1.681640625
0.098,-4.00390625,4.404296875,-0.880859375
0.0985,-4.1240234375,3.6435546875,0.0400390625
0.099,-4.564453125,3.5634765625,0.560546875
0.0995,-4.64453125,2.6826171875,1.44140625
0.1,-4.8046875,2.322265625,1.9619140625
0.1005,-4.8447265625,1.4013671875,2.9228515625
0.101,-4.5244140625,0.6005859375,3.36328125
0.1015,-3.923828125,-0.48046875,3.84375
0.102,-3.68359375,-1.1611328125,4.244140625
0.1025,-2.802734375,-2.2021484375,4.404296875
0.103,-2.3623046875,-2.802734375,4.5244140625
0.1035,-1.44140625,-3.763671875,4.5244140625
0.104,-0.48046875,-4.0439453125,3.84375
0.1045,0.16015625,-4.64453125,3.763671875
0.105,1.28125,-4.8447265625,2.8427734375
0.1055,2.0419921875,-5.125,2.322265625
0.106,2.8828125,-5.044921875,1.521484375
0.1065,3.603515625,-4.96484375,0.720703125
0.107,3.8037109375,-4.2041015625,-0.2001953125
0.1075,4.244140625,-4.1240234375,-0.6806640625
0.108,4.32421875,-3.123046875,-1.76171875
0.1085,4.4443359375,-2.72265625,-2.2822265625
0.109,4.4443359375,-1.76171875,-3.203125
0.1095,3.8837890625,-0.80078125,-3.603515625
0.11,3.443359375,0.1201171875,-4.00390625
0.1105,2.9228515625,1.0009765625,-4.32421875
0.111,2.162109375,1.9619140625,-4.5244140625
0.1115,1.6015625,2.5224609375,-4.5244140625
0.112,0.6806640625,3.36328125,-4.4443359375
0.1125,-0.3203125,3.5234375,-3.68359375
0.113,-0.9208984375,4.0439453125,-3.5634765625
0.1135,-2.08203125,4.1640625,-2.5625
0.114,-2.72265625,4.3642578125,-2.08203125
0.1145,-3.5234375,4.2841796875,-1.201171875
0.115,-3.9638671875,3.9638671875,-0.48046875
0.1155,-4.2041015625,3.4033203125,0.3203125
0.116,-4.5244140625,3.1630859375,0.880859375
0.1165,-4.64453125,2.2822265625,1.8818359375
0.117,-4.64453125,1.841796875,2.2822265625
0.1175,-4.64453125,1.0009765625,3.123046875
0.118,-3.9638671875,0.0,3.4033203125
0.1185,-3.8037109375,-0.80078125,3.9638671875
0.119,-3.04296875,-1.76171875,4.1240234375
0.1195,-2.5224609375,-2.5224609375,4.3642578125
0.12,-1.8017578125,-3.0830078125,4.244140625
0.1205,-1.0009765625,-3.8037109375,4.083984375
0.121,-0.1201171875,-4.083984375,3.443359375
0.1215,0.5205078125,-4.6044921875,3.36328125
0.122,1.76171875,-4.6845703125,2.322265625
0.1225,2.2421875,-4.884765625,2.001953125
0.123,3.0830078125,-4.7646484375,1.12109375
0.1235,3.4833984375,-4.3642578125,0.3603515625
0.124,3.8037109375,-4.00390625,-0.400390625
0.1245,4.0439453125,-3.5634765625,-1.041015625
0.125,4.244140625,-2.8427734375,-1.9619140625
0.1255,4.1640625,-2.2822265625,-2.4423828125
0.126,4.1640625,-1.44140625,-3.2431640625
0.1265,3.36328125,-0.3603515625,-3.5634765625
0.127,3.283203125,0.3603515625,-4.083984375
0.1275,2.3623046875,1.44140625,-4.2041015625
0.128,1.9619140625,2.08203125,-4.484375
0.1285,1.12109375,2.6826171875,-4.2041015625
0.129,0.2802734375,3.2431640625,-4.00390625
0.1295,-0.6005859375,3.4833984375,-3.36328125
0.13,-1.28125,4.00390625,-3.1630859375
0.1305,-2.4423828125,4.1240234375,-2.1220703125
0.131,-2.8828125,4.1640625,-1.7216796875
0.1315,-3.603515625,4.00390625,-0.8408203125
0.132,-3.8837890625,3.5234375,-0.080078125
0.1325,-4.2041015625,3.283203125,0.48046875
0.133,-4.3642578125,2.6025390625,1.28125
0.1335,-4.564453125,2.08203125,2.0419921875
0.134,-4.3642578125,1.361328125,2.5224609375
0.1345,-4.32421875,0.640625,3.1630859375
0.135,-3.5634765625,-0.48046875,3.4833984375
0.1355,-3.5234375,-1.041015625,3.9638671875
0.136,-2.5224609375,-2.2021484375,4.083984375
0.1365,-2.2822265625,-2.6826171875,4.2841796875
0.137,-1.3212890625,-3.36328125,3.9638671875
0.1375,-0.560546875,-3.84375,3.68359375
0.138,0.240234375,-4.1240234375,3.2431640625
0.1385,1.0810546875,-4.5244140625,2.802734375
0.139,2.0419921875,-4.6845703125,2.0419921875
0.1395,2.482421875,-4.564453125,1.521484375
0.14,3.1630859375,-4.484375,0.720703125
0.1405,3.3232421875,-3.8837890625,0.0
0.141,3.763671875,-3.8037109375,-0.6005859375
0.1415,3.84375,-2.9228515625,-1.4814453125
0.142,4.083984375,-2.5625,-2.08203125
0.1425,3.8037109375,-1.681640625,-2.642578125
0.143,3.68359375,-1.0009765625,-3.203125
0.1435,2.962890625,0.0400390625,-3.4833984375
0.144,2.8427734375,0.640625,-3.923828125
0.1445,1.9619140625,1.681640625,-4.1240234375
0.145,1.6416015625,2.0419921875,-4.2041015625
0.1455,0.7607421875,2.802734375,-4.00390625
0.146,0.0,3.203125,-3.5234375
0.1465,-0.720703125,3.603515625,-3.2431640625
0.147,-1.7216796875,3.8837890625,-2.5625
0.1475,-2.5625,4.1240234375,-1.9619140625
0.148,-2.962890625,3.84375,-1.3212890625
0.1485,-3.5634765625,3.763671875,-0.640625
0.149,-3.7236328125,3.1630859375,0.1201171875
0.1495,-4.1640625,3.0830078125,0.6005859375
0.15,-4.244140625,2.2021484375,1.5615234375
0.1505,-4.404296875,1.8818359375,2.0419921875
0.151,-4.1640625,0.9609375,2.6826171875
0.1515,-3.84375,0.16015625,3.1630859375
0.152,-3.36328125,-0.7607421875,3.5234375
0.1525,-3.0029296875,-1.4814453125,3.84375
0.153,-2.322265625,-2.4423828125,4.083984375
0.1535,-1.8017578125,-2.7626953125,3.84375
0.154,-1.0009765625,-3.4033203125,3.8037109375
0.1545,-0.2001953125,-3.7236328125,3.2431640625
0.155,0.48046875,-4.2041015625,3.123046875
0.1555,1.521484375,-4.404296875,2.2421875
0.156,2.2021484375,-4.6044921875,1.8017578125
0.1565,2.642578125,-4.2041015625,1.0009765625
0.157,3.1630859375,-4.1640625,0.48046875
0.1575,3.3232421875,-3.5634765625,-0.3203125
0.158,3.68359375,-3.36328125,-0.8408203125
0.1585,3.84375,-2.6025390625,-1.8017578125
0.159,3.8037109375,-2.162109375,-2.1220703125
0.1595,3.6435546875,-1.28125,-2.8828125
0.16,3.123046875,-0.4404296875,-3.203125
0.1605,2.8427734375,0.2802734375,-3.6435546875
0.161,2.2421875,1.12109375,-3.84375
0.1615,1.841796875,1.8818359375,-4.1640625
0.162,1.12109375,2.2421875,-3.763671875
0.1625,0.4404296875,2.9228515625,-3.7236328125
0.163,-0.400390625,3.1630859375,-3.1630859375
0.1635,-1.0810546875,3.68359375,-3.0029296875
0.164,-2.162109375,3.84375,-2.08203125
0.1645,-2.642578125,3.9638671875,-1.7216796875
0.165,-3.203125,3.603515625,-0.880859375
0.1655,-3.603515625,3.4833984375,-0.3203125
0.166,-3.8837890625,3.04296875,0.400390625
0.1665,-4.1240234375,2.6025390625,1.0009765625
0.167,-4.4443359375,2.0419921875,1.921875
0.1675,-4.1240234375,1.361328125,2.2421875
0.168,-4.1240234375,0.560546875,3.0029296875
0.1685,-3.443359375,-0.48046875,3.283203125
0.169,-3.283203125,-1.12109375,3.8037109375
0.1695,-2.482421875,-2.1220703125,3.8837890625
0.17,-2.08203125,-2.6826171875,4.1240234375
0.1705,-1.2412109375,-3.0830078125,3.68359375
0.171,-0.6005859375,-3.7236328125,3.6435546875
0.1715,0.2802734375,-3.9638671875,3.04296875
0.172,1.0009765625,-4.404296875,2.72265625
0.1725,2.2021484375,-4.6044921875,1.841796875
0.173,2.5625,-4.4443359375,1.28125
0.1735,3.1630859375,-4.2041015625,0.48046875
0.174,3.443359375,-3.84375,-0.16015625
0.1745,3.7236328125,-3.4833984375,-0.8408203125
0.175,3.84375,-2.8427734375,-1.6015625
0.1755,4.1240234375,-2.2822265625,-2.4423828125
0.176,3.5634765625,-1.361328125,-2.72265625
0.1765,3.5634765625,-0.640625,-3.4833984375
0.177,2.72265625,0.3203125,-3.5634765625
0.1775,2.5625,0.9208984375,-4.00390625
0.178,1.681640625,2.001953125,-4.1240234375
0.1785,1.2412109375,2.482421875,-4.0439453125
0.179,0.2802734375,2.8828125,-3.5634765625
0.1795,-0.3203125,3.3232421875,-3.4033203125
0.18,-1.1611328125,3.5634765625,-2.8427734375
0.1805,-1.921875,3.84375,-2.40234375
0.181,-2.9228515625,4.083984375,-1.6015625
0.1815,-3.203125,3.6435546875,-0.9208984375
0.182,-3.763671875,3.5634765625,-0.3203125
0.1825,-3.8837890625,3.04296875,0.4404296875
0.183,-4.244140625,2.802734375,1.0009765625
0.1835,-4.3642578125,2.0419921875,1.841796875
0.184,-4.5244140625,1.521484375,2.482421875
0.1845,-3.923828125,0.48046875,2.8427734375
0.185,-3.923828125,-0.2001953125,3.5234375
0.1855,-3.1630859375,-1.201171875,3.68359375
0.186,-2.9228515625,-1.8017578125,4.1240234375
0.1865,-2.0419921875,-2.8828125,4.2841796875
0.187,-1.44140625,-3.203125,3.9638671875
0.1875,-0.640625,-3.8037109375,3.7236328125
0.188,0.16015625,-4.1640625,3.3232421875
0.1885,1.0009765625,-4.484375,2.802734375
0.189,1.921875,-4.724609375,2.162109375
0.1895,2.8828125,-4.884765625,1.361328125
0.19,3.1630859375,-4.244140625,0.5205078125
0.1905,3.763671875,-4.244140625,0.0
0.191,3.84375,-3.5234375,-0.9208984375
0.1915,4.1240234375,-3.203125,-1.4814453125
0.192,4.244140625,-2.2822265625,-2.5224609375
0.1925,4.1240234375,-1.6416015625,-3.0830078125
0.193,3.5234375,-0.5205078125,-3.5234375
0.1935,3.283203125,0.16015625,-4.00390625
0.194,2.482421875,1.201171875,-4.083984375
0.1945,2.08203125,1.841796875,-4.3642578125
0.195,1.201171875,2.8828125,-4.484375
0.1955,0.2802734375,3.1630859375,-3.84375
0.196,-0.3603515625,3.68359375,-3.7236328125
0.1965,-1.28125,3.8837890625,-3.0029296875
0.197,-2.08203125,4.1240234375,-2.4423828125
0.1975,-2.962890625,4.2041015625,-1.6416015625
0.198,-3.7236328125,4.2041015625,-0.9208984375
0.1985,-3.8837890625,3.4833984375,0.0
0.199,-4.32421875,3.4833984375,0.4404296875
0.1995,-4.3642578125,2.642578125,1.28125
0.2,-4.5244140625,2.2421875,1.76171875
0.2005,-4.6845703125,1.361328125,2.72265625
0.201,-4.32421875,0.6005859375,3.123046875
0.2015,-3.8837890625,-0.3603515625,3.6435546875
0.202,-3.4833984375,-1.12109375,4.00390625
0.2025,-2.802734375,-2.001953125,4.2041015625
0.203,-2.322265625,-2.72265625,4.3642578125
0.2035,-1.44140625,-3.603515625,4.4443359375
0.204,-0.5205078125,-3.84375,3.7236328125
0.2045,0.0400390625,-4.484375,3.763671875
0.205,1.1611328125,-4.6845703125,2.8427734375
0.2055,1.921875,-4.96484375,2.40234375
0.206,2.8828125,-5.0048828125,1.521484375
0.2065,3.5234375,-4.8447265625,0.7607421875
0.207,3.8037109375,-4.2041015625,-0.16015625
0.2075,4.2041015625,-4.1240234375,-0.720703125
0.208,4.32421875,-3.1630859375,-1.76171875
0.2085,4.404296875,-2.72265625,-2.2822265625
0.209,4.5244140625,-1.8017578125,-3.3232421875
0.2095,3.8837890625,-0.80078125,-3.7236328125
0.21,3.5234375,0.2001953125,-4.1640625
0.2105,2.8427734375,1.12109375,-4.404296875
0.211,2.08203125,2.0419921875,-4.564453125
0.2115,1.4814453125,2.72265625,-4.564453125
0.212,0.560546875,3.5234375,-4.484375
0.2125,-0.48046875,3.7236328125,-3.6435546875
0.213,-1.0810546875,4.2041015625,-3.5634765625
0.2135,-2.40234375,4.404296875,-2.40234375
0.214,-2.9228515625,4.484375,-1.9619140625
0.2145,-3.8037109375,4.404296875,-1.0009765625
0.215,-4.2041015625,3.9638671875,-0.240234375
0.2155,-4.404296875,3.443359375,0.560546875
0.216,-4.724609375,3.0830078125,1.1611328125
0.2165,-4.8046875,2.162109375,2.1220703125
0.217,-4.6845703125,1.6015625,2.5224609375
0.2175,-4.7646484375,0.8408203125,3.443359375
0.218,-3.923828125,-0.2802734375,3.6435546875
0.2185,-3.763671875,-1.0009765625,4.1240234375
0.219,-2.8828125,-2.0419921875,4.32421875
0.2195,-2.40234375,-2.7626953125,4.484375
0.22,-1.6015625,-3.36328125,4.32421875
0.2205,-0.80078125,-4.0439453125,4.1640625
0.221,0.16015625,-4.244140625,3.4833984375
0.2215,0.7607421875,-4.8046875,3.36328125
0.222,2.0419921875,-4.9248046875,2.2421875
0.2225,2.5224609375,-5.044921875,1.921875
0.223,3.443359375,-4.96484375,0.9208984375
0.2235,3.763671875,-4.484375,0.1201171875
0.224,4.1240234375,-4.083984375,-0.640625
0.2245,4.32421875,-3.603515625,-1.361328125
0.225,4.484375,-2.8427734375,-2.322265625
0.2255,4.404296875,-2.1220703125,-2.7626953125
0.226,4.404296875,-1.2412109375,-3.68359375
0.2265,3.4833984375,0.0,-3.8837890625
0.227,3.3232421875,0.6005859375,-4.4443359375
0.2275,2.2822265625,1.841796875,-4.5244140625
0.228,1.8818359375,2.5224609375,-4.724609375
0.2285,0.9208984375,3.1630859375,-4.4443359375
0.229,0.0,3.8037109375,-4.1640625
