wavelength,x,y,z
0.0,18.788330078125,-1.991943359375,-16.085693359375
0.0005,17.146728515625,1.931884765625,-18.367919921875
0.001,15.625244140625,5.054931640625,-19.929443359375
0.0015,13.102783203125,7.977783203125,-20.409912109375
0.002,9.259033203125,11.220947265625,-19.889404296875
0.0025,4.654541015625,14.784423828125,-19.048583984375
0.003,-0.230224609375,17.787353515625,-17.406982421875
0.0035,-4.154052734375,19.709228515625,-15.645263671875
0.004,-6.716552734375,20.269775390625,-13.803466796875
0.0045,-9.679443359375,20.349853515625,-11.200927734375
0.005,-13.202880859375,19.629150390625,-7.116943359375
0.0055,-16.325927734375,18.427978515625,-2.992919921875
0.006,-18.768310546875,16.706298828125,1.171142578125
0.0065,-20.489990234375,14.984619140625,4.534423828125
0.007,-20.610107421875,12.342041015625,7.337158203125
0.0075,-20.369873046875,8.818603515625,10.580322265625
0.008,-19.609130859375,4.494384765625,14.263916015625
0.0085,-18.488037109375,0.210205078125,17.346923828125
0.009,-16.726318359375,-3.553466796875,19.468994140625
0.0095,-14.924560546875,-6.356201171875,20.429931640625
0.01,-12.201904296875,-9.279052734375,20.750244140625
0.0105,-7.637451171875,-12.962646484375,19.909423828125
0.011,-2.992919921875,-16.085693359375,18.588134765625
0.0115,1.691650390625,-18.648193359375,16.786376953125
0.012,5.295166015625,-20.409912109375,15.144775390625
0.0125,7.897705078125,-20.489990234375,12.862548828125
0.013,10.780517578125,-20.369873046875,10.099853515625
0.0135,14.544189453125,-19.489013671875,5.615478515625
0.014,17.427001953125,-17.967529296875,1.291259765625
0.0145,19.509033203125,-16.245849609375,-2.552490234375
0.015,20.630126953125,-14.364013671875,-5.435302734375
0.0155,20.550048828125,-11.441162109375,-8.358154296875
0.016,19.989501953125,-7.277099609375,-12.001708984375
0.0165,19.108642578125,-3.273193359375,-15.084716796875
0.017,17.747314453125,0.890869140625,-17.847412109375
0.0175,16.025634765625,4.454345703125,-19.729248046875
0.018,13.703369140625,7.016845703125,-20.009521484375
0.0185,10.900634765625,9.859619140625,-20.169677734375
0.019,5.895751953125,13.783447265625,-19.208740234375
0.0195,1.331298828125,16.666259765625,-17.687255859375
0.02,-2.712646484375,18.628173828125,-15.925537109375
0.0205,-5.795654296875,20.029541015625,-14.404052734375
0.021,-8.438232421875,19.909423828125,-11.881591796875
0.0215,-11.481201171875,19.468994140625,-8.638427734375
0.022,-14.764404296875,18.628173828125,-4.634521484375
0.0225,-17.567138671875,16.986572265625,-0.350341796875
0.023,-19.368896484375,15.304931640625,3.173095703125
0.0235,-19.929443359375,13.182861328125,5.735595703125
0.024,-19.929443359375,10.380126953125,8.658447265625
0.0245,-19.248779296875,5.855712890625,12.502197265625
0.025,-18.287841796875,2.052001953125,15.425048828125
0.0255,-16.966552734375,-1.631591796875,17.667236328125
0.026,-15.485107421875,-4.834716796875,19.509033203125
0.0265,-12.922607421875,-7.437255859375,19.509033203125
0.027,-9.799560546875,-10.320068359375,19.428955078125
0.0275,-5.074951171875,-14.043701171875,18.548095703125
0.028,-0.270263671875,-16.926513671875,16.826416015625
0.0285,3.333251953125,-18.648193359375,15.224853515625
0.029,6.015869140625,-19.609130859375,13.783447265625
0.0295,8.778564453125,-19.649169921875,11.220947265625
0.03,12.221923828125,-18.968505859375,7.337158203125
0.0305,15.144775390625,-18.167724609375,3.653564453125
0.031,17.747314453125,-16.606201171875,-0.510498046875
0.0315,19.468994140625,-15.004638671875,-3.793701171875
0.032,19.549072265625,-12.442138671875,-6.356201171875
0.0325,19.549072265625,-9.479248046875,-9.359130859375
0.033,18.908447265625,-4.914794921875,-13.282958984375
0.0335,17.787353515625,-0.990966796875,-16.165771484375
0.034,16.345947265625,2.452392578125,-18.087646484375
0.0345,14.824462890625,5.415283203125,-19.569091796875
0.035,11.941650390625,8.258056640625,-19.569091796875
0.0355,7.777587890625,11.781494140625,-19.088623046875
0.036,3.573486328125,15.024658203125,-18.207763671875
0.0365,-1.271240234375,17.747314453125,-16.406005859375
0.037,-4.594482421875,19.348876953125,-14.844482421875
0.0375,-7.156982421875,19.709228515625,-12.842529296875
0.038,-9.959716796875,19.789306640625,-10.400146484375
0.0385,-13.923583984375,18.868408203125,-5.715576171875
0.039,-16.646240234375,17.587158203125,-1.831787109375
0.0395,-18.768310546875,15.985595703125,1.891845703125
0.04,-20.209716796875,14.303955078125,5.014892578125
0.0405,-20.009521484375,11.301025390625,7.817626953125
0.041,-19.809326171875,7.617431640625,11.381103515625
0.0415,-19.088623046875,3.333251953125,14.864501953125
0.042,-17.687255859375,-0.910888671875,17.787353515625
0.0425,-16.005615234375,-4.194091796875,19.388916015625
0.043,-14.083740234375,-6.916748046875,20.269775390625
0.0435,-11.200927734375,-9.799560546875,20.309814453125
0.044,-5.915771484375,-13.883544921875,19.228759765625
0.0445,-1.591552734375,-16.686279296875,17.907470703125
0.045,2.772705078125,-19.008544921875,16.145751953125
0.0455,6.015869140625,-20.409912109375,14.584228515625
0.046,8.738525390625,-20.209716796875,11.821533203125
0.0465,11.661376953125,-20.169677734375,8.978759765625
0.047,15.505126953125,-19.088623046875,4.334228515625
0.0475,18.307861328125,-17.366943359375,-0.270263671875
0.048,19.909423828125,-15.645263671875,-3.473388671875
0.0485,20.790283203125,-13.563232421875,-6.396240234375
0.049,20.389892578125,-10.320068359375,-9.239013671875
0.0495,19.789306640625,-5.795654296875,-13.202880859375
0.05,18.828369140625,-1.951904296875,-16.165771484375
0.0505,17.306884765625,2.172119140625,-18.728271484375
0.051,15.425048828125,5.455322265625,-20.209716796875
0.0515,12.742431640625,8.177978515625,-20.249755859375
0.052,9.739501953125,11.140869140625,-20.289794921875
0.0525,4.134033203125,15.224853515625,-19.008544921875
0.053,-0.550537109375,17.907470703125,-17.166748046875
0.0535,-4.073974609375,19.589111328125,-15.565185546875
0.054,-7.116943359375,20.630126953125,-13.843505859375
0.0545,-9.959716796875,20.109619140625,-10.760498046875
0.055,-13.162841796875,19.549072265625,-7.076904296875
0.0555,-16.446044921875,18.508056640625,-3.032958984375
0.056,-19.048583984375,16.626220703125,1.531494140625
0.0565,-20.289794921875,14.864501953125,4.494384765625
0.057,-20.610107421875,12.342041015625,7.337158203125
0.0575,-20.329833984375,9.259033203125,10.179931640625
0.058,-19.489013671875,4.214111328125,14.384033203125
0.0585,-18.207763671875,0.330322265625,17.026611328125
0.059,-16.766357421875,-3.233154296875,19.148681640625
0.0595,-15.044677734375,-6.356201171875,20.550048828125
0.06,-11.761474609375,-9.118896484375,20.149658203125
0.0605,-8.238037109375,-12.362060546875,19.909423828125
0.061,-3.113037109375,-16.005615234375,18.628173828125
0.0615,1.851806640625,-18.568115234375,16.586181640625
0.062,4.854736328125,-19.889404296875,15.024658203125
0.0625,7.737548828125,-20.610107421875,13.102783203125
0.063,10.540283203125,-20.249755859375,10.099853515625
0.0635,14.343994140625,-19.288818359375,5.535400390625
0.064,17.226806640625,-18.007568359375,1.611572265625
0.0645,19.509033203125,-16.245849609375,-2.432373046875
0.065,20.469970703125,-14.364013671875,-5.315185546875
0.0655,20.349853515625,-11.361083984375,-8.238037109375
0.066,20.109619140625,-7.997802734375,-11.401123046875
0.0665,19.228759765625,-3.273193359375,-15.244873046875
0.067,17.667236328125,0.930908203125,-17.887451171875
0.0675,16.105712890625,4.134033203125,-19.489013671875
0.068,14.183837890625,7.096923828125,-20.650146484375
0.0685,10.700439453125,10.099853515625,-20.169677734375
0.069,6.015869140625,13.903564453125,-19.408935546875
0.0695,1.451416015625,17.026611328125,-18.207763671875
0.07,-3.273193359375,19.468994140625,-16.165771484375
0.0705,-6.115966796875,20.349853515625,-14.484130859375
0.071,-9.038818359375,20.550048828125,-12.001708984375
0.0715,-11.961669921875,20.189697265625,-8.958740234375
0.072,-15.765380859375,19.028564453125,-4.114013671875
0.0725,-18.528076171875,17.346923828125,0.290283203125
0.073,-20.329833984375,15.625244140625,3.773681640625
0.0735,-21.050537109375,13.423095703125,6.616455078125
0.074,-20.570068359375,9.939697265625,9.699462890625
0.0745,-20.089599609375,5.895751953125,13.262939453125
0.075,-19.128662109375,1.571533203125,16.666259765625
0.0755,-17.406982421875,-2.712646484375,19.228759765625
0.076,-15.525146484375,-5.715576171875,20.429931640625
0.0765,-13.202880859375,-8.678466796875,21.070556640625
0.077,-9.559326171875,-11.721435546875,20.590087890625
0.0775,-4.154052734375,-15.645263671875,19.268798828125
0.078,0.570556640625,-18.447998046875,17.627197265625
0.0785,4.614501953125,-20.489990234375,15.825439453125
0.079,7.377197265625,-21.130615234375,13.903564453125
0.0795,10.540283203125,-20.890380859375,10.740478515625
0.08,13.663330078125,-20.249755859375,7.217041015625
0.0805,17.106689453125,-18.928466796875,2.612548828125
0.081,19.709228515625,-16.926513671875,-1.951904296875
0.0815,20.990478515625,-15.124755859375,-4.994873046875
0.082,21.390869140625,-12.562255859375,-7.997802734375
0.0825,20.790283203125,-8.918701171875,-11.040771484375
0.083,19.869384765625,-4.314208984375,-14.804443359375
0.0835,18.668212890625,-0.230224609375,-17.727294921875
0.084,16.986572265625,3.813720703125,-20.009521484375
0.0845,14.784423828125,6.696533203125,-20.810302734375
0.085,11.821533203125,9.739501953125,-20.930419921875
0.0855,7.817626953125,13.142822265625,-20.449951171875
0.086,2.532470703125,16.746337890625,-18.928466796875
0.0865,-2.272216796875,19.188720703125,-16.926513671875
0.087,-5.635498046875,20.710205078125,-15.284912109375
0.0875,-8.438232421875,21.110595703125,-13.122802734375
0.088,-11.521240234375,20.590087890625,-9.719482421875
0.0885,-14.964599609375,19.749267578125,-5.635498046875
0.089,-18.007568359375,18.307861328125,-1.231201171875
0.0895,-20.329833984375,16.305908203125,3.093017578125
0.09,-21.090576171875,14.303955078125,5.815673828125
0.0905,-21.210693359375,11.381103515625,8.938720703125
0.091,-20.650146484375,7.457275390625,12.302001953125
0.0915,-19.609130859375,2.812744140625,15.945556640625
0.092,-18.087646484375,-1.351318359375,18.548095703125
0.0925,-16.526123046875,-4.914794921875,20.590087890625
0.093,-14.203857421875,-7.717529296875,21.150634765625
0.0935,-10.800537109375,-10.760498046875,20.830322265625
0.094,-6.316162109375,-14.404052734375,20.189697265625
0.0945,-1.191162109375,-17.767333984375,18.548095703125
0.095,3.453369140625,-19.929443359375,16.345947265625
0.0955,6.376220703125,-21.010498046875,14.744384765625
0.096,9.339111328125,-21.250732421875,12.302001953125
0.0965,12.502197265625,-20.530029296875,8.618408203125
0.097,15.985595703125,-19.489013671875,4.214111328125
0.0975,18.828369140625,-17.807373046875,-0.230224609375
0.098,20.870361328125,-15.885498046875,-4.154052734375
0.0985,21.190673828125,-13.563232421875,-6.796630859375
0.099,21.110595703125,-10.239990234375,-9.999755859375
0.0995,20.429931640625,-5.955810546875,-13.683349609375
0.1,19.348876953125,-1.631591796875,-17.006591796875
0.1005,17.507080078125,2.532470703125,-19.288818359375
0.101,15.865478515625,5.775634765625,-20.890380859375
0.1015,13.222900390625,8.698486328125,-21.250732421875
0.102,9.259033203125,11.981689453125,-20.650146484375
0.1025,4.494384765625,15.545166015625,-19.649169921875
0.103,-0.590576171875,18.628173828125,-17.927490234375
0.1035,-4.794677734375,20.550048828125,-15.925537109375
0.104,-7.517333984375,21.110595703125,-13.963623046875
0.1045,-10.600341796875,21.190673828125,-11.200927734375
0.105,-14.083740234375,20.349853515625,-7.076904296875
0.1055,-17.246826171875,19.068603515625,-2.712646484375
0.106,-19.809326171875,17.186767578125,1.651611328125
0.1065,-21.490966796875,15.304931640625,5.255126953125
0.107,-21.611083984375,12.502197265625,8.057861328125
0.1075,-21.290771484375,8.898681640625,11.461181640625
0.108,-20.409912109375,4.294189453125,15.224853515625
0.1085,-19.208740234375,-0.150146484375,18.427978515625
0.109,-17.286865234375,-4.154052734375,20.469970703125
0.1095,-15.284912109375,-7.076904296875,21.551025390625
0.11,-12.362060546875,-10.159912109375,21.791259765625
0.1105,-7.757568359375,-13.843505859375,20.950439453125
0.111,-2.872802734375,-17.166748046875,19.509033203125
0.1115,2.172119140625,-19.889404296875,17.507080078125
0.112,6.055908203125,-21.531005859375,15.625244140625
0.1125,8.778564453125,-21.651123046875,13.182861328125
0.113,11.861572265625,-21.490966796875,10.219970703125
0.1135,15.705322265625,-20.489990234375,5.495361328125
0.114,18.788330078125,-18.848388671875,0.970947265625
0.1145,20.990478515625,-16.846435546875,-3.273193359375
0.115,22.151611328125,-14.764404296875,-6.476318359375
0.1155,22.031494140625,-11.601318359375,-9.559326171875
0.116,21.470947265625,-7.397216796875,-13.322998046875
0.1165,20.349853515625,-2.992919921875,-16.606201171875
0.117,18.868408203125,1.571533203125,-19.569091796875
0.1175,16.786376953125,5.415283203125,-21.490966796875
0.118,14.223876953125,8.298095703125,-21.851318359375
0.1185,11.180908203125,11.381103515625,-22.011474609375
0.119,5.615478515625,15.625244140625,-20.810302734375
0.1195,0.770751953125,18.548095703125,-19.168701171875
0.12,-3.753662109375,20.790283203125,-17.046630859375
0.1205,-7.317138671875,22.231689453125,-15.244873046875
0.121,-10.239990234375,21.871337890625,-12.201904296875
0.1215,-13.443115234375,21.430908203125,-8.798583984375
0.122,-17.166748046875,20.349853515625,-4.073974609375
0.1225,-20.129638671875,18.307861328125,0.810791015625
0.123,-21.931396484375,16.265869140625,4.654541015625
0.1235,-22.572021484375,13.823486328125,7.697509765625
0.124,-22.411865234375,10.460205078125,10.900634765625
0.1245,-21.571044921875,5.455322265625,15.184814453125
0.125,-20.329833984375,1.251220703125,18.187744140625
0.1255,-18.568115234375,-3.072998046875,20.750244140625
0.126,-16.606201171875,-6.796630859375,22.552001953125
0.1265,-13.483154296875,-9.719482421875,22.351806640625
0.127,-10.079833984375,-12.922607421875,22.231689453125
0.1275,-4.354248046875,-17.126708984375,20.790283203125
0.128,1.091064453125,-20.009521484375,18.708251953125
0.1285,5.094970703125,-21.731201171875,16.626220703125
0.129,8.418212890625,-22.772216796875,14.664306640625
0.1295,11.541259765625,-22.371826171875,11.341064453125
0.13,15.104736328125,-21.490966796875,7.056884765625
0.1305,18.427978515625,-20.209716796875,2.652587890625
0.131,21.270751953125,-18.087646484375,-2.272216796875
0.1315,22.752197265625,-15.925537109375,-5.915771484375
0.132,22.752197265625,-12.962646484375,-8.918701171875
0.1325,22.552001953125,-9.559326171875,-12.201904296875
0.133,21.510986328125,-4.154052734375,-16.526123046875
0.1335,19.909423828125,0.290283203125,-19.408935546875
0.134,18.027587890625,4.214111328125,-21.450927734375
0.1345,15.985595703125,7.737548828125,-23.012451171875
0.135,12.221923828125,10.860595703125,-22.451904296875
0.1355,7.937744140625,14.464111328125,-21.931396484375
0.136,2.732666015625,18.227783203125,-20.570068359375
0.1365,-2.872802734375,21.110595703125,-18.247802734375
0.137,-6.516357421875,22.431884765625,-16.125732421875
0.1375,-9.639404296875,22.872314453125,-13.723388671875
0.138,-12.762451171875,22.552001953125,-10.520263671875
0.1385,-16.886474609375,21.190673828125,-5.235107421875
0.139,-19.809326171875,19.589111328125,-0.790771484375
0.1395,-22.131591796875,17.467041015625,3.653564453125
0.14,-23.372802734375,15.224853515625,7.056884765625
0.1405,-22.932373046875,11.661376953125,10.260009765625
0.141,-22.612060546875,7.777587890625,13.823486328125
0.1415,-21.490966796875,2.652587890625,17.867431640625
0.142,-19.569091796875,-2.192138671875,20.790283203125
0.1425,-17.447021484375,-5.835693359375,22.351806640625
0.143,-15.204833984375,-9.078857421875,23.432861328125
0.1435,-11.361083984375,-12.322021484375,22.872314453125
0.144,-5.875732421875,-16.406005859375,21.711181640625
0.1445,-0.990966796875,-19.489013671875,20.029541015625
0.145,4.254150390625,-21.971435546875,17.667236328125
0.1455,7.697509765625,-23.012451171875,15.545166015625
0.146,10.860595703125,-22.852294921875,12.422119140625
0.1465,13.863525390625,-22.491943359375,9.299072265625
0.147,18.067626953125,-20.970458984375,3.773681640625
0.1475,20.950439453125,-18.928466796875,-1.231201171875
0.148,22.712158203125,-16.806396484375,-4.954833984375
0.1485,23.552978515625,-14.404052734375,-8.278076171875
0.149,22.872314453125,-10.520263671875,-11.481201171875
0.1495,22.231689453125,-6.035888671875,-15.405029296875
0.15,20.990478515625,-1.431396484375,-18.728271484375
0.1505,19.028564453125,3.253173828125,-21.490966796875
0.151,16.666259765625,6.816650390625,-22.732177734375
0.1515,13.783447265625,9.979736328125,-23.092529296875
0.152,10.099853515625,13.302978515625,-22.732177734375
0.1525,3.893798828125,17.627197265625,-21.130615234375
0.153,-1.151123046875,20.469970703125,-19.168701171875
0.1535,-5.435302734375,22.391845703125,-17.126708984375
0.154,-8.758544921875,23.232666015625,-14.884521484375
0.1545,-12.121826171875,22.632080078125,-11.160888671875
0.155,-15.324951171875,22.031494140625,-7.557373046875
0.1555,-19.048583984375,20.469970703125,-2.472412109375
0.156,-21.811279296875,18.107666015625,2.692626953125
0.1565,-23.052490234375,15.985595703125,5.975830078125
0.157,-23.572998046875,13.182861328125,9.299072265625
0.1575,-22.892333984375,9.299072265625,12.542236328125
0.158,-21.811279296875,4.013916015625,16.866455078125
0.1585,-20.369873046875,-0.510498046875,19.829345703125
0.159,-18.528076171875,-4.714599609375,22.271728515625
0.1595,-16.085693359375,-8.117919921875,23.312744140625
0.16,-12.562255859375,-11.240966796875,23.032470703125
0.1605,-8.638427734375,-14.684326171875,22.592041015625
0.161,-2.552490234375,-18.728271484375,20.790283203125
0.1615,2.892822265625,-21.330810546875,18.267822265625
0.162,6.456298828125,-22.772216796875,16.385986328125
0.1625,9.739501953125,-23.412841796875,14.023681640625
0.163,13.062744140625,-22.572021484375,10.179931640625
0.1635,16.706298828125,-21.531005859375,5.615478515625
0.164,19.909423828125,-20.009521484375,0.970947265625
0.1645,22.471923828125,-17.647216796875,-3.873779296875
0.165,23.232666015625,-15.324951171875,-6.956787109375
0.1655,23.272705078125,-12.041748046875,-10.280029296875
0.166,22.672119140625,-8.037841796875,-13.723388671875
0.1665,21.430908203125,-2.872802734375,-17.807373046875
0.167,19.509033203125,1.771728515625,-20.489990234375
0.1675,17.707275390625,5.495361328125,-22.491943359375
0.168,15.184814453125,8.898681640625,-23.252685546875
0.1685,11.060791015625,12.181884765625,-22.652099609375
0.169,6.416259765625,15.985595703125,-21.891357421875
0.1695,0.970947265625,19.509033203125,-20.209716796875
0.17,-4.354248046875,21.911376953125,-17.647216796875
0.1705,-7.437255859375,22.792236328125,-15.685302734375
0.171,-10.720458984375,23.112548828125,-12.962646484375
0.1715,-14.043701171875,22.311767578125,-9.078857421875
0.172,-17.807373046875,20.950439453125,-4.033935546875
0.1725,-20.730224609375,19.068603515625,0.650634765625
0.173,-22.892333984375,16.906494140625,4.974853515625
0.1735,-23.332763671875,14.303955078125,7.977783203125
0.174,-23.052490234375,10.460205078125,11.541259765625
0.1745,-22.331787109375,6.095947265625,15.224853515625
0.175,-21.090576171875,1.211181640625,18.908447265625
0.1755,-18.928466796875,-3.433349609375,21.430908203125
0.176,-16.926513671875,-6.756591796875,22.752197265625
0.1765,-14.243896484375,-9.959716796875,23.392822265625
0.177,-9.919677734375,-13.322998046875,22.471923828125
0.1775,-4.594482421875,-17.166748046875,21.190673828125
0.178,0.650634765625,-20.209716796875,19.268798828125
0.1785,5.415283203125,-22.371826171875,16.946533203125
0.179,8.298095703125,-22.812255859375,14.744384765625
0.1795,11.661376953125,-22.772216796875,11.581298828125
0.18,15.104736328125,-21.931396484375,7.537353515625
0.1805,18.668212890625,-20.369873046875,2.572509765625
0.181,21.270751953125,-18.247802734375,-2.152099609375
