wavelength,x,y,z
0.0,-2.2271728515625,8.6634521484375,-6.5513916015625
0.0005,-3.7086181640625,8.9437255859375,-5.4302978515625
0.001,-4.8297119140625,8.4232177734375,-3.9088134765625
0.0015,-6.1910400390625,8.2230224609375,-2.3873291015625
0.002,-7.0318603515625,7.4222412109375,-0.7857666015625
0.0025,-7.9927978515625,6.7816162109375,0.9359130859375
0.003,-8.6734619140625,5.9007568359375,2.5374755859375
0.0035,-8.6734619140625,4.4993896484375,3.9388427734375
0.004,-8.3131103515625,2.8577880859375,5.2601318359375
0.0045,-7.9527587890625,1.1361083984375,6.5814208984375
0.005,-7.1119384765625,-0.6256103515625,7.5423583984375
0.0055,-6.3111572265625,-2.3873291015625,8.4232177734375
0.006,-4.7496337890625,-4.1890869140625,8.6634521484375
0.0065,-3.0679931640625,-5.4703369140625,8.3031005859375
0.007,-1.4664306640625,-6.9117431640625,8.1829833984375
0.0075,0.1351318359375,-7.9527587890625,7.6224365234375
0.008,1.8568115234375,-8.8336181640625,6.9017333984375
0.0085,3.3782958984375,-9.4742431640625,6.0609130859375
0.009,4.7796630859375,-9.4342041015625,4.5794677734375
0.0095,5.9407958984375,-8.9537353515625,3.0579833984375
0.01,7.1820068359375,-8.5933837890625,1.4163818359375
0.0105,7.9827880859375,-7.5523681640625,-0.3453369140625
0.011,8.8236083984375,-6.7916259765625,-1.9869384765625
0.0115,9.3441162109375,-5.6304931640625,-3.7086181640625
0.012,8.9837646484375,-3.8687744140625,-5.1099853515625
0.0125,8.6234130859375,-2.1871337890625,-6.4312744140625
0.013,7.8226318359375,-0.3453369140625,-7.5123291015625
0.0135,6.7816162109375,1.6566162109375,-8.4732666015625
0.014,5.7406005859375,3.4984130859375,-9.1539306640625
0.0145,3.8988037109375,5.2601318359375,-9.1138916015625
0.015,2.0570068359375,6.5013427734375,-8.5933837890625
0.0155,0.4954833984375,7.8226318359375,-8.2730712890625
0.016,-1.5465087890625,8.7034912109375,-7.2320556640625
0.0165,-3.2281494140625,9.4241943359375,-6.3511962890625
0.017,-4.8697509765625,9.7445068359375,-5.1500244140625
0.0175,-6.1109619140625,9.1839599609375,-3.4683837890625
0.018,-7.2720947265625,8.6234130859375,-1.7867431640625
0.0185,-8.2730712890625,7.8226318359375,0.1351318359375
0.019,-8.9537353515625,6.5013427734375,2.2171630859375
0.0195,-9.5543212890625,5.5003662109375,3.7786865234375
0.02,-9.6744384765625,3.9788818359375,5.4603271484375
0.0205,-8.9136962890625,2.0169677734375,6.7015380859375
0.021,-8.3931884765625,0.2152099609375,7.9827880859375
0.0215,-7.0718994140625,-1.9468994140625,8.8236083984375
0.022,-5.7506103515625,-4.0689697265625,9.5843505859375
0.0225,-4.1890869140625,-5.7506103515625,9.7044677734375
0.023,-2.2672119140625,-7.2320556640625,9.2239990234375
0.0235,-0.4254150390625,-8.3131103515625,8.5433349609375
0.024,1.4163818359375,-9.3941650390625,7.8626708984375
0.0245,3.6585693359375,-10.114868164062,6.4212646484375
0.025,5.1400146484375,-10.555297851562,5.3402099609375
0.0255,6.5814208984375,-10.555297851562,3.8988037109375
0.026,7.5423583984375,-9.6343994140625,2.0970458984375
0.0265,8.6234130859375,-8.8336181640625,0.3753662109375
0.027,9.2640380859375,-7.5924072265625,-1.5865478515625
0.0275,9.8245849609375,-6.1510009765625,-3.5885009765625
0.028,10.064819335938,-5.0699462890625,-4.9898681640625
0.0285,9.7845458984375,-3.2681884765625,-6.5513916015625
0.029,8.8236083984375,-1.3463134765625,-7.5123291015625
0.0295,8.1029052734375,0.5755615234375,-8.6334228515625
0.03,6.5013427734375,2.8177490234375,-9.2740478515625
0.0305,5.2601318359375,4.6195068359375,-9.8345947265625
0.031,3.5384521484375,6.2611083984375,-9.7144775390625
0.0315,1.5765380859375,7.3822021484375,-8.9537353515625
0.032,-0.1451416015625,8.4232177734375,-8.3131103515625
0.0325,-1.9468994140625,9.2640380859375,-7.3922119140625
0.033,-3.9488525390625,9.7845458984375,-6.0709228515625
0.0335,-5.2301025390625,9.9447021484375,-4.9898681640625
0.034,-6.5513916015625,9.6243896484375,-3.5084228515625
0.0345,-7.3922119140625,8.7435302734375,-1.7066650390625
0.035,-8.3531494140625,8.0228271484375,0.0150146484375
0.0355,-8.9136962890625,6.5814208984375,1.9368896484375
0.036,-9.4342041015625,5.5804443359375,3.5384521484375
0.0365,-9.5943603515625,4.3792724609375,4.9398193359375
0.037,-8.9937744140625,2.5374755859375,6.2611083984375
0.0375,-8.3131103515625,0.8157958984375,7.3021240234375
0.038,-7.4322509765625,-1.0660400390625,8.2630615234375
0.0385,-6.1109619140625,-3.0679931640625,8.9036865234375
0.039,-4.9898681640625,-4.5494384765625,9.2640380859375
0.0395,-3.2281494140625,-6.0709228515625,9.0238037109375
0.04,-1.5465087890625,-7.1119384765625,8.3831787109375
0.0405,0.0950927734375,-8.2730712890625,7.9827880859375
0.041,1.8568115234375,-8.9537353515625,6.9818115234375
0.0415,3.3782958984375,-9.6343994140625,6.1009521484375
0.042,4.6195068359375,-9.7945556640625,5.0999755859375
0.0425,5.7406005859375,-9.3140869140625,3.5784912109375
0.043,6.7015380859375,-8.7135009765625,2.1370849609375
0.0435,7.7025146484375,-8.0728759765625,0.5355224609375
0.044,8.3031005859375,-6.9918212890625,-1.2261962890625
0.0445,8.9837646484375,-6.3511962890625,-2.5875244140625
0.045,9.1038818359375,-5.0699462890625,-3.9888916015625
0.0455,8.6234130859375,-3.3883056640625,-5.2301025390625
0.046,8.1829833984375,-1.7867431640625,-6.4312744140625
0.0465,7.3822021484375,0.0150146484375,-7.3521728515625
0.047,6.5413818359375,1.7366943359375,-8.1929931640625
0.0475,5.5003662109375,3.1781005859375,-8.6734619140625
0.048,3.8187255859375,4.6595458984375,-8.4332275390625
0.0485,2.2972412109375,5.8607177734375,-8.1129150390625
0.049,0.7757568359375,7.0618896484375,-7.8726806640625
0.0495,-0.8258056640625,7.8226318359375,-7.0718994140625
0.05,-2.2271728515625,8.6234130859375,-6.5513916015625
0.0505,-3.5484619140625,8.8236083984375,-5.4703369140625
0.051,-4.7095947265625,8.4232177734375,-3.9888916015625
0.0515,-5.9107666015625,8.1429443359375,-2.5474853515625
0.052,-6.8717041015625,7.5023193359375,-0.9859619140625
0.0525,-7.7125244140625,6.7415771484375,0.6556396484375
0.053,-8.4332275390625,6.1009521484375,2.0570068359375
0.0535,-8.5133056640625,4.7796630859375,3.5384521484375
0.054,-8.1929931640625,3.2181396484375,4.7396240234375
0.0545,-7.8726806640625,1.5364990234375,6.1409912109375
0.055,-7.0718994140625,-0.2252197265625,7.0618896484375
0.0555,-6.4312744140625,-1.8668212890625,8.0628662109375
0.056,-5.1500244140625,-3.3482666015625,8.2630615234375
0.0565,-3.5484619140625,-4.8297119140625,8.0628662109375
0.057,-2.0670166015625,-6.1510009765625,7.9027099609375
0.0575,-0.6256103515625,-7.3121337890625,7.6624755859375
0.058,1.1361083984375,-8.1129150390625,6.9417724609375
0.0585,2.3372802734375,-8.8336181640625,6.4212646484375
0.059,3.6986083984375,-8.9537353515625,5.2200927734375
0.0595,4.8597412109375,-8.6334228515625,3.8187255859375
0.06,6.1409912109375,-8.3931884765625,2.2972412109375
0.0605,7.0218505859375,-7.6724853515625,0.7357177734375
0.061,8.0228271484375,-7.1119384765625,-0.8658447265625
0.0615,8.5833740234375,-6.3511962890625,-2.2271728515625
0.062,8.5032958984375,-4.7896728515625,-3.7086181640625
0.0625,8.2630615234375,-3.2681884765625,-4.9898681640625
0.063,7.8226318359375,-1.5465087890625,-6.3111572265625
0.0635,7.0618896484375,0.2552490234375,-7.3121337890625
0.064,6.3812255859375,1.8968505859375,-8.2330322265625
0.0645,4.8597412109375,3.4583740234375,-8.3131103515625
0.065,3.2581787109375,4.8597412109375,-8.0328369140625
0.0655,1.8167724609375,6.1409912109375,-7.9927978515625
0.066,0.1351318359375,7.1019287109375,-7.3922119140625
0.0665,-1.3863525390625,8.1829833984375,-6.9117431640625
0.067,-2.7076416015625,8.6634521484375,-6.0709228515625
0.0675,-4.0289306640625,8.5433349609375,-4.6695556640625
0.068,-5.2701416015625,8.2230224609375,-3.1881103515625
0.0685,-6.5113525390625,7.8226318359375,-1.5865478515625
0.069,-7.3521728515625,6.9417724609375,0.1351318359375
0.0695,-8.3131103515625,6.3812255859375,1.6165771484375
0.07,-8.5933837890625,5.2601318359375,3.0980224609375
0.0705,-8.3131103515625,3.5784912109375,4.5394287109375
0.071,-8.0728759765625,1.9769287109375,5.9007568359375
0.0715,-7.3922119140625,0.1751708984375,7.0218505859375
0.072,-6.5113525390625,-1.6666259765625,7.9827880859375
0.0725,-5.3902587890625,-3.2681884765625,8.4232177734375
0.073,-3.8287353515625,-4.9898681640625,8.3031005859375
0.0735,-2.1871337890625,-6.1510009765625,8.0628662109375
0.074,-0.6256103515625,-7.4322509765625,7.8226318359375
0.0745,1.2161865234375,-8.2730712890625,6.9818115234375
0.075,2.6976318359375,-9.1138916015625,6.3812255859375
0.0755,3.9788818359375,-9.2740478515625,5.2601318359375
0.076,5.2601318359375,-8.9537353515625,3.6986083984375
0.0765,6.4212646484375,-8.5533447265625,2.2171630859375
0.077,7.4622802734375,-7.8326416015625,0.5355224609375
0.0775,8.2630615234375,-6.9117431640625,-1.2662353515625
0.078,8.9437255859375,-6.1910400390625,-2.7076416015625
0.0785,8.9837646484375,-4.7496337890625,-4.2291259765625
0.079,8.4632568359375,-2.9478759765625,-5.4703369140625
0.0795,8.0628662109375,-1.2662353515625,-6.7916259765625
0.08,7.0618896484375,0.6956787109375,-7.7125244140625
0.0805,6.1409912109375,2.5775146484375,-8.6734619140625
0.081,4.8197021484375,4.1390380859375,-8.8336181640625
0.0815,2.9378662109375,5.5804443359375,-8.5133056640625
0.082,1.3763427734375,6.7015380859375,-8.1529541015625
0.0825,-0.3453369140625,7.9427490234375,-7.6724853515625
0.083,-2.2672119140625,8.7435302734375,-6.5914306640625
0.0835,-3.6285400390625,9.2239990234375,-5.7506103515625
0.084,-4.9898681640625,9.1038818359375,-4.3492431640625
0.0845,-6.1109619140625,8.5433349609375,-2.7076416015625
0.085,-7.2720947265625,8.0228271484375,-1.1461181640625
0.0855,-8.0328369140625,6.9417724609375,0.8558349609375
0.086,-8.8336181640625,5.9808349609375,2.5775146484375
0.0865,-9.1138916015625,4.9398193359375,3.9388427734375
0.087,-8.9136962890625,3.2181396484375,5.4202880859375
0.0875,-8.2730712890625,1.4564208984375,6.5814208984375
0.088,-7.6324462890625,-0.4254150390625,7.7825927734375
0.0885,-6.2711181640625,-2.5474853515625,8.5833740234375
0.089,-5.1500244140625,-4.1890869140625,9.2239990234375
0.0895,-3.3482666015625,-5.7506103515625,8.9036865234375
0.09,-1.7066650390625,-7.0718994140625,8.4632568359375
0.0905,0.0150146484375,-8.1129150390625,7.9827880859375
0.091,1.7767333984375,-8.9937744140625,7.0618896484375
0.0915,3.6585693359375,-9.7144775390625,6.0208740234375
0.092,4.8597412109375,-9.7945556640625,4.9398193359375
0.0925,6.1409912109375,-9.4742431640625,3.3782958984375
0.093,7.1019287109375,-8.7535400390625,1.7767333984375
0.0935,8.1429443359375,-8.0728759765625,0.0950927734375
0.094,8.7835693359375,-6.7515869140625,-1.9468994140625
0.0945,9.4241943359375,-5.8306884765625,-3.5084228515625
0.095,9.3441162109375,-4.5494384765625,-4.8297119140625
0.0955,8.9036865234375,-2.7076416015625,-6.1510009765625
0.096,8.1829833984375,-1.0260009765625,-7.1920166015625
0.0965,7.3021240234375,0.9759521484375,-8.1929931640625
0.097,5.9407958984375,3.0980224609375,-9.0338134765625
0.0975,4.6595458984375,4.5394287109375,-9.2340087890625
0.098,2.8177490234375,6.0208740234375,-8.8336181640625
0.0985,1.2161865234375,7.1820068359375,-8.3131103515625
0.099,-0.4654541015625,8.2230224609375,-7.7926025390625
0.0995,-2.4273681640625,8.9837646484375,-6.7115478515625
0.1,-4.0289306640625,9.5443115234375,-5.7105712890625
0.1005,-5.1900634765625,9.3441162109375,-4.4293212890625
0.101,-6.3912353515625,8.9036865234375,-2.8277587890625
0.1015,-7.3121337890625,8.1829833984375,-1.2261962890625
0.102,-8.1929931640625,7.3421630859375,0.6156005859375
0.1025,-8.8736572265625,6.0208740234375,2.5775146484375
0.103,-9.2340087890625,5.0999755859375,3.8988037109375
0.1035,-9.0738525390625,3.5784912109375,5.2601318359375
0.104,-8.3931884765625,1.7767333984375,6.4613037109375
0.1045,-7.8326416015625,0.0550537109375,7.6224365234375
0.105,-6.7115478515625,-1.9869384765625,8.4232177734375
0.1055,-5.4302978515625,-3.9888916015625,9.1439208984375
0.106,-3.8687744140625,-5.3902587890625,8.9437255859375
0.1065,-2.1070556640625,-6.7115478515625,8.6234130859375
0.107,-0.5855712890625,-7.7125244140625,8.0628662109375
0.1075,1.0960693359375,-8.7135009765625,7.5023193359375
0.108,3.0579833984375,-9.4342041015625,6.3411865234375
0.1085,4.4193115234375,-9.7945556640625,5.3802490234375
0.109,5.5003662109375,-9.5142822265625,4.0189208984375
0.1095,6.6614990234375,-8.9937744140625,2.4173583984375
0.11,7.6224365234375,-8.3131103515625,0.8958740234375
0.1105,8.3431396484375,-7.3521728515625,-0.9859619140625
0.111,9.0638427734375,-6.2711181640625,-2.7076416015625
0.1115,9.2640380859375,-5.2701416015625,-3.9488525390625
0.112,9.0238037109375,-3.5885009765625,-5.4302978515625
0.1125,8.3831787109375,-1.9068603515625,-6.4713134765625
0.113,7.7425537109375,-0.1451416015625,-7.6724853515625
0.1135,6.4613037109375,1.9368896484375,-8.4732666015625
0.114,5.4202880859375,3.6585693359375,-9.1138916015625
0.1145,3.8187255859375,5.0999755859375,-8.8336181640625
0.115,2.0970458984375,6.4212646484375,-8.4732666015625
0.1155,0.5755615234375,7.4222412109375,-7.9927978515625
0.116,-1.2261962890625,8.3831787109375,-7.2720947265625
0.1165,-3.0679931640625,9.1439208984375,-6.2711181640625
0.117,-4.3092041015625,9.2640380859375,-5.1900634765625
0.1175,-5.5103759765625,8.9837646484375,-3.7086181640625
0.118,-6.5513916015625,8.3831787109375,-2.1470947265625
0.1185,-7.5924072265625,7.7425537109375,-0.5054931640625
0.119,-8.3131103515625,6.5413818359375,1.4564208984375
0.1195,-8.9937744140625,5.7005615234375,3.0579833984375
0.12,-8.9937744140625,4.4993896484375,4.2991943359375
0.1205,-8.6734619140625,2.6976318359375,5.7406005859375
0.121,-8.0328369140625,1.0159912109375,6.8616943359375
0.1215,-7.3121337890625,-0.9058837890625,7.9027099609375
0.122,-6.0308837890625,-2.9879150390625,8.7034912109375
0.1225,-4.7095947265625,-4.5093994140625,8.9837646484375
0.123,-2.9879150390625,-5.9107666015625,8.6234130859375
0.1235,-1.3863525390625,-7.0718994140625,8.2630615234375
0.124,0.2552490234375,-8.1529541015625,7.7425537109375
0.1245,2.0570068359375,-8.9937744140625,6.8216552734375
0.125,3.7386474609375,-9.6744384765625,5.9007568359375
0.1255,4.8597412109375,-9.5543212890625,4.6995849609375
0.126,6.1409912109375,-9.2340087890625,3.1380615234375
0.1265,7.0618896484375,-8.5533447265625,1.5765380859375
0.127,8.0628662109375,-7.8726806640625,-0.1451416015625
0.1275,8.7435302734375,-6.6715087890625,-2.0670166015625
0.128,9.2640380859375,-5.7506103515625,-3.5484619140625
0.1285,9.1038818359375,-4.3492431640625,-4.8297119140625
0.129,8.6634521484375,-2.5474853515625,-6.1510009765625
0.1295,8.0228271484375,-0.8658447265625,-7.2320556640625
0.13,7.0618896484375,1.1761474609375,-8.1929931640625
0.1305,5.8607177734375,3.2581787109375,-9.0338134765625
0.131,4.3392333984375,4.6995849609375,-8.9537353515625
0.1315,2.5374755859375,6.1409912109375,-8.6334228515625
0.132,1.0159912109375,7.1820068359375,-8.1929931640625
0.1325,-0.6656494140625,8.2630615234375,-7.6724853515625
0.133,-2.5875244140625,8.9837646484375,-6.5113525390625
0.1335,-4.1490478515625,9.5042724609375,-5.5103759765625
0.134,-5.2701416015625,9.1439208984375,-4.1090087890625
0.1345,-6.5513916015625,8.7034912109375,-2.5074462890625
0.135,-7.4322509765625,7.9827880859375,-0.9058837890625
0.1355,-8.3131103515625,7.0618896484375,0.9759521484375
0.136,-9.0338134765625,5.8206787109375,2.8978271484375
0.1365,-9.2340087890625,4.7796630859375,4.2191162109375
0.137,-8.9537353515625,3.0980224609375,5.6605224609375
0.1375,-8.3131103515625,1.2562255859375,6.8616943359375
0.138,-7.6324462890625,-0.5855712890625,7.9027099609375
0.1385,-6.3511962890625,-2.6275634765625,8.7435302734375
0.139,-5.0699462890625,-4.5494384765625,9.3441162109375
0.1395,-3.2281494140625,-5.9107666015625,8.9036865234375
0.14,-1.5465087890625,-7.3121337890625,8.6234130859375
0.1405,0.0950927734375,-8.2330322265625,7.9827880859375
0.141,1.8167724609375,-9.1138916015625,7.1820068359375
0.1415,3.8187255859375,-9.9146728515625,6.0208740234375
0.142,5.0999755859375,-9.9547119140625,4.8197021484375
0.1425,6.3011474609375,-9.5142822265625,3.2581787109375
0.143,7.3822021484375,-8.9136962890625,1.6566162109375
0.1435,8.2630615234375,-8.1129150390625,0.0150146484375
0.144,8.9837646484375,-6.9117431640625,-1.9468994140625
0.1445,9.6243896484375,-5.7506103515625,-3.8287353515625
0.145,9.4241943359375,-4.4293212890625,-4.9898681640625
0.1455,9.0238037109375,-2.6676025390625,-6.4312744140625
0.146,8.2230224609375,-0.9459228515625,-7.3922119140625
0.1465,7.4222412109375,1.0159912109375,-8.3931884765625
0.147,6.0208740234375,3.2581787109375,-9.1939697265625
0.1475,4.5794677734375,4.9798583984375,-9.5142822265625
0.148,2.6575927734375,6.2611083984375,-8.8736572265625
0.1485,1.0560302734375,7.5423583984375,-8.5133056640625
0.149,-0.6256103515625,8.3831787109375,-7.7926025390625
0.1495,-2.4674072265625,9.1839599609375,-6.8316650390625
0.15,-4.3892822265625,9.9046630859375,-5.7105712890625
0.1505,-5.5904541015625,9.5443115234375,-4.1890869140625
0.151,-6.7916259765625,9.1038818359375,-2.5875244140625
0.1515,-7.6724853515625,8.2630615234375,-0.9859619140625
0.152,-8.5133056640625,7.3822021484375,0.8157958984375
0.1525,-9.1539306640625,6.0609130859375,2.8177490234375
0.153,-9.6343994140625,4.8597412109375,4.4993896484375
0.1535,-9.1539306640625,3.2581787109375,5.6605224609375
0.154,-8.7135009765625,1.4163818359375,7.0618896484375
0.1545,-7.7926025390625,-0.3453369140625,7.9427490234375
0.155,-6.8717041015625,-2.2672119140625,8.8236083984375
0.1555,-5.3101806640625,-4.4693603515625,9.5443115234375
0.156,-3.5885009765625,-5.9508056640625,9.3040771484375
0.1565,-1.7867431640625,-7.2720947265625,8.7835693359375
0.157,-0.1851806640625,-8.3131103515625,8.2630615234375
0.1575,1.5364990234375,-9.1539306640625,7.5023193359375
0.158,3.4583740234375,-9.8746337890625,6.3411865234375
0.1585,5.1400146484375,-10.395141601562,5.1400146484375
0.159,6.2210693359375,-9.6744384765625,3.5784912109375
0.1595,7.4222412109375,-9.3140869140625,1.9769287109375
0.16,8.1829833984375,-8.3131103515625,0.3353271484375
0.1605,8.9837646484375,-7.3922119140625,-1.4664306640625
0.161,9.5843505859375,-6.1109619140625,-3.4683837890625
0.1615,9.7445068359375,-4.8697509765625,-4.9097900390625
0.162,9.2239990234375,-3.1480712890625,-6.1510009765625
0.1625,8.6234130859375,-1.3463134765625,-7.3521728515625
0.163,7.7025146484375,0.5355224609375,-8.1929931640625
0.1635,6.5814208984375,2.5374755859375,-9.0338134765625
0.164,5.0999755859375,4.6595458984375,-9.7144775390625
0.1645,3.2181396484375,5.9407958984375,-9.1138916015625
0.165,1.4964599609375,7.3421630859375,-8.7935791015625
0.1655,-0.1451416015625,8.2230224609375,-8.1129150390625
0.166,-1.8668212890625,9.0238037109375,-7.3121337890625
0.1665,-3.8287353515625,9.7445068359375,-6.0709228515625
0.167,-5.3101806640625,9.9046630859375,-4.8297119140625
0.1675,-6.3912353515625,9.1439208984375,-3.0679931640625
0.168,-7.5523681640625,8.7034912109375,-1.5064697265625
0.1685,-8.3131103515625,7.7025146484375,0.2952880859375
0.169,-8.9937744140625,6.5814208984375,2.0970458984375
0.1695,-9.6343994140625,5.2601318359375,4.0589599609375
0.17,-9.4342041015625,3.8187255859375,5.3001708984375
0.1705,-8.9537353515625,1.9769287109375,6.6614990234375
0.171,-8.1929931640625,0.2952880859375,7.7025146484375
0.1715,-7.3121337890625,-1.5865478515625,8.6634521484375
0.172,-5.9107666015625,-3.6685791015625,9.3040771484375
0.1725,-4.3492431640625,-5.5504150390625,9.6243896484375
0.173,-2.3472900390625,-6.7515869140625,8.8236083984375
0.1735,-0.7457275390625,-8.0728759765625,8.5833740234375
0.174,0.9759521484375,-8.9136962890625,7.7425537109375
0.1745,2.6976318359375,-9.6343994140625,6.8216552734375
0.175,4.6195068359375,-10.355102539062,5.6605224609375
0.1755,5.8607177734375,-10.034790039062,4.2191162109375
0.176,7.0218505859375,-9.4742431640625,2.5374755859375
0.1765,7.9827880859375,-8.7535400390625,0.9359130859375
0.177,8.7034912109375,-7.7926025390625,-0.8258056640625
0.1775,9.3441162109375,-6.6715087890625,-2.7076416015625
0.178,9.9046630859375,-5.4302978515625,-4.5093994140625
