wavelength,x,y,z
0.0,20.19970703125,-8.66845703125,-10.71044921875
0.0005,19.55908203125,-4.82470703125,-13.95361328125
0.001,18.75830078125,-0.98095703125,-16.99658203125
0.0015,16.95654296875,2.90283203125,-19.07861328125
0.002,14.99462890625,6.02587890625,-20.19970703125
0.0025,11.83154296875,9.10888671875,-20.19970703125
0.003,7.14697265625,12.79248046875,-19.43896484375
0.0035,3.46337890625,15.67529296875,-18.83837890625
0.004,-1.26123046875,18.39794921875,-17.19677734375
0.0045,-4.98486328125,20.19970703125,-15.47509765625
0.005,-7.74755859375,20.35986328125,-12.95263671875
0.0055,-10.95068359375,20.15966796875,-9.74951171875
0.006,-14.59423828125,19.39892578125,-5.50537109375
0.0065,-17.35693359375,18.19775390625,-1.58154296875
0.007,-19.47900390625,16.47607421875,2.22216796875
0.0075,-20.68017578125,14.43408203125,5.42529296875
0.008,-20.39990234375,11.15087890625,8.38818359375
0.0085,-19.87939453125,6.90673828125,12.03173828125
0.009,-19.39892578125,3.46337890625,14.91455078125
0.0095,-18.23779296875,-0.62060546875,17.83740234375
0.01,-16.35595703125,-4.34423828125,19.79931640625
0.0105,-13.95361328125,-7.10693359375,20.19970703125
0.011,-10.75048828125,-10.22998046875,20.23974609375
0.0115,-5.78564453125,-14.03369140625,19.35888671875
0.012,-1.74169921875,-16.79638671875,18.27783203125
0.0125,2.46240234375,-19.03857421875,16.63623046875
0.013,5.90576171875,-20.60009765625,14.95458984375
0.0135,8.86865234375,-20.27978515625,11.83154296875
0.014,12.19189453125,-19.87939453125,8.22802734375
0.0145,15.51513671875,-19.31884765625,4.50439453125
0.015,18.35791015625,-17.79736328125,0.18017578125
0.0155,20.15966796875,-15.99560546875,-3.46337890625
0.016,20.76025390625,-13.55322265625,-6.38623046875
0.0165,20.47998046875,-10.22998046875,-9.46923828125
0.017,19.83935546875,-5.74560546875,-13.31298828125
0.0175,19.15869140625,-2.30224609375,-15.99560546875
0.018,17.75732421875,1.66162109375,-18.55810546875
0.0185,15.87548828125,5.34521484375,-20.35986328125
0.019,12.63232421875,8.26806640625,-20.11962890625
0.0195,9.14892578125,11.47119140625,-20.03955078125
0.02,4.50439453125,15.19482421875,-19.31884765625
0.0205,-0.22021484375,17.99755859375,-17.79736328125
0.021,-3.90380859375,19.87939453125,-16.07568359375
0.0215,-7.14697265625,20.96044921875,-14.15380859375
0.022,-10.35009765625,20.47998046875,-10.71044921875
0.0225,-13.95361328125,19.71923828125,-6.46630859375
0.023,-16.79638671875,19.07861328125,-3.02294921875
0.0235,-19.39892578125,17.27685546875,1.38134765625
0.024,-20.88037109375,15.23486328125,4.82470703125
0.0245,-20.84033203125,12.15185546875,7.82763671875
0.025,-20.56005859375,8.62841796875,10.99072265625
0.0255,-19.87939453125,4.18408203125,14.75439453125
0.026,-18.83837890625,0.34033203125,17.55712890625
0.0265,-17.11669921875,-3.38330078125,19.51904296875
0.027,-15.23486328125,-6.70654296875,21.08056640625
0.0275,-11.43115234375,-9.78955078125,20.47998046875
0.028,-7.30712890625,-13.27294921875,19.99951171875
0.0285,-3.14306640625,-16.51611328125,19.23876953125
0.029,1.86181640625,-19.11865234375,17.31689453125
0.0295,5.26513671875,-20.56005859375,15.47509765625
0.03,8.34814453125,-20.96044921875,12.95263671875
0.0305,11.55126953125,-20.56005859375,9.58935546875
0.031,15.31494140625,-19.63916015625,4.98486328125
0.0315,18.03759765625,-18.51806640625,1.22119140625
0.032,20.19970703125,-16.67626953125,-2.70263671875
0.0325,21.24072265625,-14.59423828125,-5.94580078125
0.033,20.80029296875,-11.03076171875,-8.94873046875
0.0335,20.35986328125,-7.18701171875,-12.31201171875
0.034,19.71923828125,-3.26318359375,-15.55517578125
0.0345,18.27783203125,0.98095703125,-18.31787109375
0.035,16.31591796875,4.46435546875,-19.91943359375
0.0355,13.95361328125,7.58740234375,-20.80029296875
0.036,10.18994140625,10.75048828125,-20.31982421875
0.0365,5.34521484375,14.43408203125,-19.39892578125
0.037,1.46142578125,17.31689453125,-18.55810546875
0.0375,-3.06298828125,19.59912109375,-16.63623046875
0.038,-6.38623046875,20.80029296875,-14.75439453125
0.0385,-9.46923828125,20.56005859375,-11.59130859375
0.039,-12.59228515625,20.19970703125,-8.18798828125
0.0395,-15.99560546875,19.27880859375,-3.98388671875
0.04,-18.67822265625,17.59716796875,0.34033203125
0.0405,-20.27978515625,15.75537109375,3.66357421875
0.041,-21.00048828125,13.35302734375,6.70654296875
0.0415,-20.31982421875,9.62939453125,9.78955078125
0.042,-19.71923828125,5.46533203125,13.31298828125
0.0425,-19.11865234375,1.94189453125,16.19580078125
0.043,-17.63720703125,-2.10205078125,18.79833984375
0.0435,-15.63525390625,-5.42529296875,20.15966796875
0.044,-12.75244140625,-8.34814453125,20.31982421875
0.0445,-9.14892578125,-11.51123046875,20.03955078125
0.045,-4.26416015625,-15.15478515625,19.07861328125
0.0455,0.10009765625,-17.83740234375,17.59716796875
0.046,3.78369140625,-19.71923828125,16.03564453125
0.0465,6.94677734375,-20.64013671875,14.03369140625
0.047,10.18994140625,-20.11962890625,10.39013671875
0.0475,13.39306640625,-19.59912109375,6.74658203125
0.048,16.47607421875,-18.83837890625,3.06298828125
0.0485,19.07861328125,-17.07666015625,-1.34130859375
0.049,20.23974609375,-15.19482421875,-4.38427734375
0.0495,20.56005859375,-12.35205078125,-7.38720703125
0.05,19.99951171875,-8.78857421875,-10.47021484375
0.0505,19.39892578125,-4.54443359375,-13.99365234375
0.051,18.51806640625,-0.90087890625,-16.75634765625
0.0515,17.03662109375,2.90283203125,-19.07861328125
0.052,14.83447265625,6.14599609375,-20.19970703125
0.0525,11.31103515625,9.26904296875,-19.87939453125
0.053,7.50732421875,12.67236328125,-19.67919921875
0.0535,3.06298828125,16.07568359375,-18.87841796875
0.054,-1.74169921875,18.63818359375,-16.95654296875
0.0545,-4.94482421875,20.15966796875,-15.39501953125
0.055,-8.06787109375,20.72021484375,-13.07275390625
0.0555,-11.39111328125,20.11962890625,-9.26904296875
0.056,-14.75439453125,19.39892578125,-5.30517578125
0.0565,-17.63720703125,18.31787109375,-1.46142578125
0.057,-19.99951171875,16.39599609375,2.74267578125
0.0575,-20.76025390625,14.23388671875,5.70556640625
0.058,-20.64013671875,10.83056640625,8.94873046875
0.0585,-20.15966796875,6.98681640625,12.19189453125
0.059,-19.51904296875,2.98291015625,15.63525390625
0.0595,-18.07763671875,-1.14111328125,18.23779296875
0.06,-16.43603515625,-4.62451171875,20.11962890625
0.0605,-14.03369140625,-7.74755859375,20.92041015625
0.061,-9.90966796875,-10.99072265625,20.23974609375
0.0615,-5.74560546875,-14.39404296875,19.63916015625
0.062,-1.30126953125,-17.55712890625,18.55810546875
0.0625,3.38330078125,-19.83935546875,16.51611328125
0.063,6.38623046875,-20.80029296875,14.71435546875
0.0635,9.62939453125,-20.96044921875,11.83154296875
0.064,13.03271484375,-20.23974609375,7.74755859375
0.0645,16.27587890625,-19.39892578125,3.78369140625
0.065,18.95849609375,-17.91748046875,-0.46044921875
0.0655,20.92041015625,-15.95556640625,-4.22412109375
0.066,21.24072265625,-13.31298828125,-7.10693359375
0.0665,20.76025390625,-9.42919921875,-10.47021484375
0.067,20.03955078125,-5.50537109375,-13.63330078125
0.0675,19.39892578125,-1.66162109375,-16.83642578125
0.068,17.59716796875,2.58251953125,-19.27880859375
0.0685,15.63525390625,5.78564453125,-20.52001953125
0.069,12.75244140625,8.90869140625,-20.92041015625
0.0695,8.30810546875,12.39208984375,-20.15966796875
0.07,3.98388671875,15.63525390625,-19.27880859375
0.0705,-0.50048828125,18.47802734375,-17.95751953125
0.071,-4.70458984375,20.56005859375,-16.07568359375
0.0715,-7.58740234375,21.00048828125,-13.83349609375
0.072,-10.91064453125,20.76025390625,-10.31005859375
0.0725,-14.31396484375,19.99951171875,-6.38623046875
0.073,-17.31689453125,18.95849609375,-2.42236328125
0.0735,-19.71923828125,17.11669921875,1.86181640625
0.074,-21.12060546875,15.07470703125,5.18505859375
0.0745,-21.24072265625,12.11181640625,8.26806640625
0.075,-20.52001953125,7.94775390625,11.71142578125
0.0755,-19.83935546875,4.06396484375,14.79443359375
0.076,-18.91845703125,0.18017578125,17.75732421875
0.0765,-17.07666015625,-3.90380859375,19.99951171875
0.077,-14.75439453125,-6.82666015625,20.72021484375
0.0775,-11.55126953125,-9.94970703125,20.76025390625
0.078,-7.06689453125,-13.51318359375,20.03955078125
0.0785,-2.62255859375,-16.63623046875,18.95849609375
0.079,1.86181640625,-19.03857421875,17.15673828125
0.0795,5.46533203125,-20.76025390625,15.51513671875
0.08,8.30810546875,-20.92041015625,12.95263671875
0.0805,11.75146484375,-20.35986328125,9.06884765625
0.081,15.03466796875,-19.75927734375,5.26513671875
0.0815,18.07763671875,-18.47802734375,1.14111328125
0.082,20.23974609375,-16.51611328125,-2.98291015625
0.0825,21.04052734375,-14.35400390625,-5.90576171875
0.083,21.00048828125,-11.11083984375,-9.02880859375
0.0835,20.23974609375,-6.74658203125,-12.67236328125
0.084,19.55908203125,-3.14306640625,-15.55517578125
0.0845,18.23779296875,0.90087890625,-18.19775390625
0.085,16.51611328125,4.70458984375,-20.35986328125
0.0855,13.67333984375,7.66748046875,-20.52001953125
0.086,10.10986328125,10.83056640625,-20.27978515625
0.0865,5.66552734375,14.39404296875,-19.67919921875
0.087,1.14111328125,17.51708984375,-18.51806640625
0.0875,-3.22314453125,19.63916015625,-16.55615234375
0.088,-6.42626953125,20.84033203125,-14.87451171875
0.0885,-9.50927734375,20.88037109375,-11.87158203125
0.089,-13.15283203125,20.07958984375,-7.58740234375
0.0895,-16.03564453125,19.47900390625,-4.10400390625
0.09,-18.91845703125,17.91748046875,0.30029296875
0.0905,-20.88037109375,15.87548828125,4.18408203125
0.091,-21.12060546875,13.15283203125,7.06689453125
0.0915,-20.88037109375,9.62939453125,10.35009765625
0.092,-20.15966796875,5.22509765625,13.95361328125
0.0925,-19.35888671875,1.46142578125,16.95654296875
0.093,-17.67724609375,-2.50244140625,19.19873046875
0.0935,-15.91552734375,-5.94580078125,20.96044921875
0.094,-12.71240234375,-8.94873046875,20.88037109375
0.0945,-8.50830078125,-12.31201171875,20.23974609375
0.095,-4.34423828125,-15.55517578125,19.55908203125
0.0955,0.58056640625,-18.55810546875,17.95751953125
0.096,4.54443359375,-20.47998046875,15.99560546875
0.0965,7.42724609375,-21.04052734375,13.91357421875
0.097,10.59033203125,-21.00048828125,10.63037109375
0.0975,14.39404296875,-19.87939453125,6.10595703125
0.098,17.19677734375,-19.03857421875,2.54248046875
0.0985,19.63916015625,-17.27685546875,-1.62158203125
0.099,21.28076171875,-15.27490234375,-5.22509765625
0.0995,21.00048828125,-12.11181640625,-8.06787109375
0.1,20.56005859375,-8.26806640625,-11.47119140625
0.1005,19.87939453125,-4.30419921875,-14.67431640625
0.101,18.87841796875,-0.30029296875,-17.67724609375
0.1015,16.91650390625,3.58349609375,-19.59912109375
0.102,14.79443359375,6.66650390625,-20.64013671875
0.1025,11.51123046875,9.74951171875,-20.56005859375
0.103,6.66650390625,13.47314453125,-19.67919921875
0.1035,2.90283203125,16.31591796875,-18.91845703125
0.104,-1.78173828125,18.87841796875,-17.15673828125
0.1045,-5.50537109375,20.60009765625,-15.39501953125
0.105,-8.34814453125,20.47998046875,-12.71240234375
0.1055,-11.47119140625,20.35986328125,-9.42919921875
0.106,-15.07470703125,19.51904296875,-5.14501953125
0.1065,-17.79736328125,18.19775390625,-1.14111328125
0.107,-19.75927734375,16.35595703125,2.62255859375
0.1075,-20.92041015625,14.27392578125,5.78564453125
0.108,-20.56005859375,10.87060546875,8.78857421875
0.1085,-19.95947265625,6.58642578125,12.47216796875
0.109,-19.35888671875,3.18310546875,15.23486328125
0.1095,-18.19775390625,-0.90087890625,18.07763671875
0.11,-16.27587890625,-4.62451171875,19.91943359375
0.1105,-13.75341796875,-7.34716796875,20.23974609375
0.111,-10.51025390625,-10.39013671875,20.19970703125
0.1115,-5.58544921875,-14.23388671875,19.31884765625
0.112,-1.42138671875,-16.99658203125,18.15771484375
0.1125,2.62255859375,-19.07861328125,16.47607421875
0.113,6.02587890625,-20.64013671875,14.79443359375
0.1135,8.98876953125,-20.19970703125,11.67138671875
0.114,12.27197265625,-19.71923828125,7.94775390625
0.1145,15.47509765625,-19.19873046875,4.34423828125
0.115,18.23779296875,-17.59716796875,0.06005859375
0.1155,19.99951171875,-15.75537109375,-3.50341796875
0.116,20.47998046875,-13.31298828125,-6.38623046875
0.1165,20.23974609375,-9.98974609375,-9.42919921875
0.117,19.59912109375,-5.50537109375,-13.19287109375
0.1175,18.91845703125,-2.14208984375,-15.91552734375
0.118,17.51708984375,1.74169921875,-18.31787109375
0.1185,15.71533203125,5.30517578125,-20.15966796875
0.119,12.43212890625,8.18798828125,-19.83935546875
0.1195,8.94873046875,11.35107421875,-19.71923828125
0.12,4.42431640625,14.95458984375,-19.07861328125
0.1205,-0.30029296875,17.79736328125,-17.47705078125
0.121,-3.86376953125,19.51904296875,-15.87548828125
0.1215,-7.06689453125,20.64013671875,-13.95361328125
0.122,-10.18994140625,20.23974609375,-10.55029296875
0.1225,-13.79345703125,19.43896484375,-6.34619140625
0.123,-16.59619140625,18.75830078125,-2.90283203125
0.1235,-19.11865234375,16.99658203125,1.34130859375
0.124,-20.56005859375,15.03466796875,4.74462890625
0.1245,-20.47998046875,11.95166015625,7.70751953125
0.125,-20.19970703125,8.46826171875,10.87060546875
0.1255,-19.59912109375,4.14404296875,14.55419921875
0.126,-18.55810546875,0.30029296875,17.31689453125
0.1265,-16.83642578125,-3.34326171875,19.23876953125
0.127,-14.99462890625,-6.62646484375,20.76025390625
0.1275,-11.23095703125,-9.66943359375,20.19970703125
0.128,-7.06689453125,-13.15283203125,19.71923828125
0.1285,-3.02294921875,-16.35595703125,18.99853515625
0.129,1.94189453125,-18.99853515625,17.03662109375
0.1295,5.26513671875,-20.35986328125,15.35498046875
0.13,8.30810546875,-20.72021484375,12.79248046875
0.1305,11.51123046875,-20.35986328125,9.42919921875
0.131,15.19482421875,-19.47900390625,4.90478515625
0.1315,17.95751953125,-18.27783203125,1.02099609375
0.132,19.99951171875,-16.51611328125,-2.74267578125
0.1325,21.12060546875,-14.39404296875,-5.90576171875
0.133,20.60009765625,-10.83056640625,-8.94873046875
0.1335,20.15966796875,-6.94677734375,-12.31201171875
0.134,19.59912109375,-3.14306640625,-15.55517578125
0.1345,18.11767578125,1.14111328125,-18.35791015625
0.135,16.19580078125,4.62451171875,-19.91943359375
0.1355,13.79345703125,7.70751953125,-20.72021484375
0.136,9.98974609375,10.83056640625,-20.23974609375
0.1365,5.10498046875,14.59423828125,-19.35888671875
0.137,1.14111328125,17.43701171875,-18.43798828125
0.1375,-3.26318359375,19.75927734375,-16.59619140625
0.138,-6.58642578125,20.92041015625,-14.71435546875
0.1385,-9.74951171875,20.64013671875,-11.39111328125
0.139,-12.91259765625,20.15966796875,-7.86767578125
0.1395,-16.27587890625,19.27880859375,-3.78369140625
0.14,-18.91845703125,17.51708984375,0.70068359375
0.1405,-20.47998046875,15.67529296875,4.02392578125
0.141,-21.12060546875,13.15283203125,7.06689453125
0.1415,-20.47998046875,9.34912109375,10.18994140625
0.142,-19.79931640625,5.10498046875,13.71337890625
0.1425,-19.15869140625,1.58154296875,16.63623046875
0.143,-17.63720703125,-2.58251953125,19.23876953125
0.1435,-15.51513671875,-5.86572265625,20.47998046875
0.144,-12.51220703125,-8.90869140625,20.60009765625
0.1445,-8.82861328125,-12.11181640625,20.23974609375
0.145,-3.86376953125,-15.75537109375,19.23876953125
0.1455,0.66064453125,-18.35791015625,17.63720703125
0.146,4.30419921875,-20.19970703125,15.99560546875
0.1465,7.46728515625,-21.04052734375,13.91357421875
0.147,10.83056640625,-20.47998046875,10.10986328125
0.1475,14.07373046875,-19.79931640625,6.34619140625
0.148,17.15673828125,-18.99853515625,2.54248046875
0.1485,19.71923828125,-17.03662109375,-1.94189453125
0.149,20.80029296875,-15.07470703125,-4.94482421875
0.1495,20.96044921875,-12.11181640625,-8.02783203125
0.15,20.35986328125,-8.30810546875,-11.23095703125
0.1505,19.67919921875,-4.10400390625,-14.71435546875
0.151,18.59814453125,-0.30029296875,-17.43701171875
0.1515,16.99658203125,3.54345703125,-19.67919921875
0.152,14.71435546875,6.70654296875,-20.68017578125
0.1525,10.91064453125,9.90966796875,-20.19970703125
0.153,7.06689453125,13.31298828125,-19.87939453125
0.1535,2.54248046875,16.71630859375,-18.95849609375
0.154,-2.34228515625,19.23876953125,-16.95654296875
0.1545,-5.54541015625,20.56005859375,-15.31494140625
0.155,-8.66845703125,21.08056640625,-12.83251953125
0.1555,-12.03173828125,20.39990234375,-8.94873046875
0.156,-15.39501953125,19.51904296875,-4.94482421875
0.1565,-18.19775390625,18.39794921875,-0.98095703125
0.157,-20.43994140625,16.35595703125,3.26318359375
0.1575,-21.12060546875,14.07373046875,6.14599609375
0.158,-20.92041015625,10.55029296875,9.46923828125
0.1585,-20.31982421875,6.58642578125,12.79248046875
0.159,-19.63916015625,2.58251953125,16.07568359375
0.1595,-18.07763671875,-1.58154296875,18.63818359375
0.16,-16.35595703125,-5.02490234375,20.43994140625
0.1605,-13.83349609375,-8.18798828125,21.12060546875
0.161,-9.66943359375,-11.43115234375,20.35986328125
0.1615,-5.42529296875,-14.75439453125,19.71923828125
0.162,-0.94091796875,-17.87744140625,18.55810546875
0.1625,3.70361328125,-20.11962890625,16.51611328125
0.163,6.66650390625,-20.96044921875,14.59423828125
0.1635,9.90966796875,-21.00048828125,11.59130859375
0.164,13.35302734375,-20.27978515625,7.54736328125
0.1645,16.51611328125,-19.35888671875,3.54345703125
0.165,19.19873046875,-17.79736328125,-0.70068359375
0.1655,21.04052734375,-15.87548828125,-4.46435546875
0.166,21.32080078125,-13.15283203125,-7.38720703125
0.1665,20.80029296875,-9.26904296875,-10.75048828125
0.167,20.15966796875,-5.30517578125,-13.95361328125
0.1675,19.43896484375,-1.42138671875,-17.11669921875
0.168,17.59716796875,2.74267578125,-19.47900390625
0.1685,15.51513671875,5.94580078125,-20.64013671875
0.169,12.59228515625,9.02880859375,-21.00048828125
0.1695,8.06787109375,12.63232421875,-20.19970703125
0.17,3.78369140625,15.83544921875,-19.27880859375
0.1705,-0.78076171875,18.63818359375,-17.79736328125
0.171,-4.94482421875,20.64013671875,-15.99560546875
0.1715,-7.82763671875,21.08056640625,-13.67333984375
0.172,-11.15087890625,20.76025390625,-10.22998046875
0.1725,-14.55419921875,20.03955078125,-6.18603515625
0.173,-17.55712890625,18.95849609375,-2.18212890625
0.1735,-19.91943359375,16.99658203125,2.10205078125
0.174,-21.20068359375,14.99462890625,5.42529296875
0.1745,-21.28076171875,11.91162109375,8.46826171875
0.175,-20.64013671875,7.70751953125,12.03173828125
0.1755,-19.87939453125,3.86376953125,15.07470703125
0.176,-18.87841796875,-0.18017578125,17.99755859375
0.1765,-17.03662109375,-4.22412109375,20.27978515625
0.177,-14.63427734375,-7.10693359375,20.84033203125
0.1775,-11.35107421875,-10.22998046875,20.84033203125
0.178,-6.74658203125,-13.87353515625,20.11962890625
0.1785,-2.38232421875,-16.91650390625,18.95849609375
0.179,2.18212890625,-19.23876953125,17.11669921875
0.1795,5.74560546875,-20.96044921875,15.43505859375
0.18,8.66845703125,-21.04052734375,12.71240234375
0.1805,12.11181640625,-20.43994140625,8.82861328125
0.181,15.39501953125,-19.75927734375,5.06494140625
0.1815,18.39794921875,-18.43798828125,0.82080078125
0.182,20.47998046875,-16.43603515625,-3.30322265625
0.1825,21.16064453125,-14.15380859375,-6.22607421875
0.183,21.08056640625,-10.87060546875,-9.30908203125
0.1835,20.35986328125,-6.42626953125,-12.99267578125
0.184,19.51904296875,-2.86279296875,-15.87548828125
0.1845,18.15771484375,1.18115234375,-18.39794921875
0.185,16.39599609375,4.94482421875,-20.52001953125
0.1855,13.47314453125,7.86767578125,-20.60009765625
0.186,9.78955078125,11.11083984375,-20.27978515625
0.1865,5.38525390625,14.67431640625,-19.63916015625
0.187,0.78076171875,17.75732421875,-18.39794921875
0.1875,-3.50341796875,19.79931640625,-16.43603515625
0.188,-6.58642578125,20.96044921875,-14.67431640625
0.1885,-9.70947265625,20.84033203125,-11.67138671875
0.189,-13.27294921875,19.99951171875,-7.38720703125
0.1895,-16.15576171875,19.27880859375,-3.82373046875
0.19,-18.91845703125,17.67724609375,0.50048828125
0.1905,-20.80029296875,15.67529296875,4.34423828125
0.191,-20.96044921875,12.95263671875,7.14697265625
0.1915,-20.76025390625,9.38916015625,10.39013671875
