wavelength,x,y,z
0.0,-2.2822265625,4.083984375,-2.2421875
0.0005,-3.0830078125,4.2041015625,-1.5615234375
0.001,-3.4833984375,3.84375,-0.80078125
0.0015,-4.0439453125,3.7236328125,-0.16015625
0.002,-4.1640625,3.04296875,0.6806640625
0.0025,-4.484375,2.802734375,1.2412109375
0.003,-4.6044921875,1.8017578125,2.322265625
0.0035,-4.5244140625,1.3212890625,2.6826171875
0.004,-4.244140625,0.400390625,3.3232421875
0.0045,-3.84375,-0.48046875,3.763671875
0.005,-3.283203125,-1.3212890625,4.00390625
0.0055,-2.72265625,-2.162109375,4.2841796875
0.006,-1.921875,-3.203125,4.4443359375
0.0065,-1.2412109375,-3.4833984375,4.00390625
0.007,-0.4404296875,-4.1640625,3.923828125
0.0075,0.48046875,-4.3642578125,3.2431640625
0.008,1.1611328125,-4.7646484375,2.9228515625
0.0085,2.40234375,-4.96484375,1.8818359375
0.009,3.0830078125,-5.0048828125,1.2412109375
0.0095,3.4833984375,-4.5244140625,0.3603515625
0.01,4.0439453125,-4.3642578125,-0.2802734375
0.0105,4.1240234375,-3.603515625,-1.12109375
0.011,4.32421875,-3.203125,-1.76171875
0.0115,4.5244140625,-2.2421875,-2.8828125
0.012,4.2041015625,-1.521484375,-3.2431640625
0.0125,3.923828125,-0.5205078125,-3.8837890625
0.013,3.3232421875,0.48046875,-4.2041015625
0.0135,2.72265625,1.3212890625,-4.484375
0.014,1.9619140625,2.2822265625,-4.64453125
0.0145,1.201171875,3.2431640625,-4.8046875
0.015,0.240234375,3.4833984375,-4.1240234375
0.0155,-0.5205078125,4.1240234375,-4.00390625
0.016,-1.4814453125,4.244140625,-3.1630859375
0.0165,-2.2421875,4.484375,-2.72265625
0.017,-3.4833984375,4.6044921875,-1.6015625
0.0175,-4.0439453125,4.404296875,-0.8408203125
0.018,-4.404296875,3.84375,0.1201171875
0.0185,-4.8447265625,3.6435546875,0.720703125
0.019,-4.8447265625,2.7626953125,1.5615234375
0.0195,-4.9248046875,2.2021484375,2.2421875
0.02,-5.125,1.28125,3.3232421875
0.0205,-4.5244140625,0.400390625,3.603515625
0.021,-4.2841796875,-0.5205078125,4.2041015625
0.0215,-3.5634765625,-1.4814453125,4.404296875
0.022,-3.0029296875,-2.2822265625,4.6044921875
0.0225,-2.08203125,-3.2431640625,4.64453125
0.023,-1.28125,-4.0439453125,4.64453125
0.0235,-0.3203125,-4.2841796875,3.8837890625
0.024,0.3203125,-4.884765625,3.8837890625
0.0245,1.44140625,-5.0048828125,2.8427734375
0.025,2.162109375,-5.205078125,2.40234375
0.0255,3.36328125,-5.365234375,1.28125
0.026,3.84375,-4.96484375,0.560546875
0.0265,4.2041015625,-4.484375,-0.3603515625
0.027,4.5244140625,-4.1240234375,-1.0009765625
0.0275,4.6044921875,-3.283203125,-1.921875
0.028,4.64453125,-2.6025390625,-2.6025390625
0.0285,4.8447265625,-1.7216796875,-3.68359375
0.029,4.00390625,-0.640625,-3.8837890625
0.0295,3.84375,0.240234375,-4.5244140625
0.03,2.8828125,1.28125,-4.64453125
0.0305,2.40234375,2.08203125,-4.8447265625
0.031,1.4013671875,3.123046875,-4.884765625
0.0315,0.560546875,3.84375,-4.7646484375
0.032,-0.48046875,4.083984375,-3.9638671875
0.0325,-1.1611328125,4.564453125,-3.8837890625
0.033,-2.40234375,4.64453125,-2.6826171875
0.0335,-3.0029296875,4.724609375,-2.2021484375
0.034,-4.2041015625,4.8447265625,-1.12109375
0.0345,-4.5244140625,4.2841796875,-0.2001953125
0.035,-4.9248046875,3.84375,0.6005859375
0.0355,-5.125,3.2431640625,1.4013671875
0.036,-5.205078125,2.40234375,2.2822265625
0.0365,-5.125,1.6416015625,2.962890625
0.037,-5.2451171875,0.80078125,3.8837890625
0.0375,-4.244140625,-0.3603515625,4.083984375
0.038,-4.2041015625,-1.12109375,4.724609375
0.0385,-3.04296875,-2.2822265625,4.6845703125
0.039,-2.5625,-2.962890625,4.8447265625
0.0395,-1.5615234375,-3.8837890625,4.7646484375
0.04,-0.640625,-4.484375,4.4443359375
0.0405,0.3203125,-4.7646484375,3.7236328125
0.041,1.0810546875,-5.205078125,3.443359375
0.0415,2.2822265625,-5.28515625,2.2421875
0.042,2.8427734375,-5.2451171875,1.76171875
0.0425,3.8837890625,-5.28515625,0.80078125
0.043,4.083984375,-4.564453125,-0.1201171875
0.0435,4.484375,-4.3642578125,-0.80078125
0.044,4.64453125,-3.5234375,-1.681640625
0.0445,4.7646484375,-2.8427734375,-2.5224609375
0.045,4.6044921875,-2.001953125,-3.1630859375
0.0455,4.6044921875,-1.201171875,-3.923828125
0.046,3.6435546875,0.0400390625,-4.1240234375
0.0465,3.5634765625,0.720703125,-4.7646484375
0.047,2.3623046875,1.9619140625,-4.7646484375
0.0475,1.921875,2.5224609375,-4.8447265625
0.048,0.9609375,3.4833984375,-4.7646484375
0.0485,0.0,3.84375,-4.2841796875
0.049,-0.880859375,4.1640625,-3.763671875
0.0495,-1.76171875,4.564453125,-3.2431640625
0.05,-2.8828125,4.6845703125,-2.2421875
0.0505,-3.36328125,4.6044921875,-1.6416015625
0.051,-4.32421875,4.6044921875,-0.720703125
0.0515,-4.4443359375,3.8037109375,0.240234375
0.052,-4.9248046875,3.68359375,0.80078125
0.0525,-5.0048828125,2.642578125,1.8818359375
0.053,-5.0849609375,2.08203125,2.482421875
0.0535,-4.884765625,1.2412109375,3.1630859375
0.054,-4.7646484375,0.4404296875,3.8037109375
0.0545,-3.8837890625,-0.720703125,4.0439453125
0.055,-3.7236328125,-1.44140625,4.5244140625
0.0555,-2.6025390625,-2.642578125,4.6044921875
0.056,-2.2021484375,-3.0830078125,4.6044921875
0.0565,-1.2412109375,-4.00390625,4.484375
0.057,-0.3203125,-4.32421875,3.84375
0.0575,0.48046875,-4.724609375,3.5634765625
0.058,1.521484375,-4.96484375,2.8427734375
0.0585,2.40234375,-5.0849609375,2.0419921875
0.059,2.9228515625,-4.9248046875,1.4013671875
0.0595,3.68359375,-4.8447265625,0.6005859375
0.06,3.84375,-4.1240234375,-0.3203125
0.0605,4.2841796875,-4.0439453125,-0.80078125
0.061,4.32421875,-2.962890625,-1.9619140625
0.0615,4.4443359375,-2.6025390625,-2.40234375
0.062,4.32421875,-1.6416015625,-3.1630859375
0.0625,3.9638671875,-0.80078125,-3.603515625
0.063,3.3232421875,0.240234375,-4.00390625
0.0635,2.9228515625,0.9609375,-4.3642578125
0.064,2.001953125,2.08203125,-4.484375
0.0645,1.6015625,2.40234375,-4.5244140625
0.065,0.6806640625,3.203125,-4.3642578125
0.0655,-0.240234375,3.4833984375,-3.7236328125
0.066,-0.880859375,3.9638671875,-3.5634765625
0.0665,-2.001953125,4.1640625,-2.5625
0.067,-2.642578125,4.32421875,-2.0419921875
0.0675,-3.283203125,4.1240234375,-1.28125
0.068,-3.84375,3.9638671875,-0.6005859375
0.0685,-4.0439453125,3.3232421875,0.2802734375
0.069,-4.4443359375,3.1630859375,0.80078125
0.0695,-4.5244140625,2.2421875,1.8017578125
0.07,-4.564453125,1.921875,2.2021484375
0.0705,-4.5244140625,1.0810546875,3.0029296875
0.071,-4.00390625,0.16015625,3.3232421875
0.0715,-3.7236328125,-0.6806640625,3.84375
0.072,-3.123046875,-1.5615234375,4.0439453125
0.0725,-2.5224609375,-2.4423828125,4.2841796875
0.073,-1.921875,-2.8828125,4.1240234375
0.0735,-1.1611328125,-3.603515625,4.00390625
0.074,-0.2802734375,-3.84375,3.4033203125
0.0745,0.400390625,-4.3642578125,3.3232421875
0.075,1.5615234375,-4.5244140625,2.2421875
0.0755,2.08203125,-4.6845703125,1.9619140625
0.076,2.7626953125,-4.5244140625,1.1611328125
0.0765,3.1630859375,-4.2841796875,0.560546875
0.077,3.4833984375,-3.84375,-0.240234375
0.0775,3.8037109375,-3.5234375,-0.8408203125
0.078,3.9638671875,-2.7626953125,-1.8017578125
0.0785,3.8837890625,-2.322265625,-2.1220703125
0.079,3.8837890625,-1.5615234375,-2.8828125
0.0795,3.2431640625,-0.560546875,-3.203125
0.08,3.123046875,0.2001953125,-3.763671875
0.0805,2.3623046875,1.12109375,-3.923828125
0.081,2.0419921875,1.7216796875,-4.244140625
0.0815,1.28125,2.2421875,-4.00390625
0.082,0.6005859375,2.8427734375,-3.84375
0.0825,-0.2802734375,3.1630859375,-3.283203125
0.083,-0.9609375,3.68359375,-3.1630859375
0.0835,-2.001953125,3.8037109375,-2.2021484375
0.084,-2.4423828125,3.8837890625,-1.921875
0.0845,-3.0830078125,3.8037109375,-1.12109375
0.085,-3.36328125,3.4033203125,-0.48046875
0.0855,-3.84375,3.1630859375,0.2001953125
0.086,-4.00390625,2.6025390625,0.9208984375
0.0865,-4.244140625,2.2021484375,1.6015625
0.087,-4.1240234375,1.5615234375,2.0419921875
0.0875,-4.1640625,0.9208984375,2.6826171875
0.088,-3.4833984375,-0.080078125,3.04296875
0.0885,-3.4833984375,-0.720703125,3.5634765625
0.089,-2.6025390625,-1.7216796875,3.68359375
0.0895,-2.4423828125,-2.2021484375,3.9638671875
0.09,-1.6015625,-2.7626953125,3.7236328125
0.0905,-1.0009765625,-3.203125,3.5634765625
0.091,-0.2001953125,-3.6435546875,3.203125
0.0915,0.6005859375,-4.083984375,2.802734375
0.092,1.521484375,-4.32421875,2.162109375
0.0925,1.921875,-4.2841796875,1.76171875
0.093,2.6025390625,-4.2841796875,1.12109375
0.0935,2.8828125,-3.84375,0.3603515625
0.094,3.4033203125,-3.8037109375,-0.2001953125
0.0945,3.5234375,-3.0029296875,-1.12109375
0.095,3.84375,-2.7626953125,-1.6416015625
0.0955,3.603515625,-1.9619140625,-2.2021484375
0.096,3.5634765625,-1.28125,-2.8427734375
0.0965,2.9228515625,-0.3203125,-3.203125
0.097,2.802734375,0.3203125,-3.68359375
0.0975,2.0419921875,1.3212890625,-3.8837890625
0.098,1.8017578125,1.76171875,-3.9638671875
0.0985,0.9609375,2.40234375,-3.8037109375
0.099,0.2001953125,2.802734375,-3.4033203125
0.0995,-0.5205078125,3.2431640625,-3.203125
0.1,-1.44140625,3.5234375,-2.5224609375
0.1005,-2.162109375,3.763671875,-2.0419921875
0.101,-2.6025390625,3.5634765625,-1.4013671875
0.1015,-3.203125,3.5634765625,-0.8408203125
0.102,-3.4033203125,3.04296875,-0.080078125
0.1025,-3.84375,2.9228515625,0.4404296875
0.103,-3.9638671875,2.162109375,1.3212890625
0.1035,-4.1640625,1.921875,1.76171875
0.104,-3.8837890625,1.041015625,2.3623046875
0.1045,-3.7236328125,0.2802734375,2.8427734375
0.105,-3.283203125,-0.6005859375,3.203125
0.1055,-2.9228515625,-1.28125,3.5234375
0.106,-2.40234375,-2.08203125,3.84375
0.1065,-1.921875,-2.40234375,3.68359375
0.107,-1.201171875,-3.0830078125,3.6435546875
0.1075,-0.4404296875,-3.36328125,3.1630859375
0.108,0.2802734375,-3.923828125,3.04296875
0.1085,1.28125,-4.1240234375,2.2021484375
0.109,1.8818359375,-4.3642578125,1.8818359375
0.1095,2.3623046875,-4.083984375,1.12109375
0.11,2.8427734375,-4.0439453125,0.6005859375
0.1105,3.1630859375,-3.5634765625,-0.16015625
0.111,3.5234375,-3.36328125,-0.7607421875
0.1115,3.763671875,-2.642578125,-1.6416015625
0.112,3.68359375,-2.2021484375,-2.001953125
0.1125,3.603515625,-1.4013671875,-2.7626953125
0.113,3.123046875,-0.5205078125,-3.203125
0.1135,2.8427734375,0.240234375,-3.6435546875
0.114,2.2421875,1.201171875,-3.84375
0.1145,1.8017578125,1.921875,-4.1240234375
0.115,1.041015625,2.2421875,-3.7236328125
0.1155,0.400390625,2.9228515625,-3.7236328125
0.116,-0.5205078125,3.1630859375,-3.0830078125
0.1165,-1.201171875,3.6435546875,-2.8828125
0.117,-2.2822265625,3.84375,-1.9619140625
0.1175,-2.7626953125,3.84375,-1.4814453125
0.118,-3.2431640625,3.5234375,-0.6806640625
0.1185,-3.6435546875,3.283203125,-0.1201171875
0.119,-3.84375,2.8427734375,0.6005859375
0.1195,-4.0439453125,2.322265625,1.28125
0.12,-4.32421875,1.76171875,2.08203125
0.1205,-3.9638671875,1.041015625,2.3623046875
0.121,-3.923828125,0.2802734375,3.04296875
0.1215,-3.283203125,-0.640625,3.283203125
0.122,-3.123046875,-1.2412109375,3.763671875
0.1225,-2.2822265625,-2.2021484375,3.84375
0.123,-1.8818359375,-2.72265625,3.9638671875
0.1235,-1.041015625,-3.123046875,3.5234375
0.124,-0.4404296875,-3.68359375,3.5234375
0.1245,0.4404296875,-3.8837890625,2.8427734375
0.125,1.1611328125,-4.2841796875,2.5224609375
0.1255,2.2021484375,-4.5244140625,1.7216796875
0.126,2.5224609375,-4.32421875,1.201171875
0.1265,3.1630859375,-4.1640625,0.48046875
0.127,3.36328125,-3.763671875,-0.240234375
0.1275,3.7236328125,-3.4033203125,-0.9208984375
0.128,3.84375,-2.72265625,-1.681640625
0.1285,4.083984375,-2.2822265625,-2.4423828125
0.129,3.5234375,-1.3212890625,-2.802734375
0.1295,3.5634765625,-0.640625,-3.5634765625
0.13,2.7626953125,0.48046875,-3.68359375
0.1305,2.5224609375,1.12109375,-4.1240234375
0.131,1.6416015625,2.162109375,-4.244140625
0.1315,1.12109375,2.6025390625,-4.1240234375
0.132,0.240234375,3.123046875,-3.7236328125
0.1325,-0.48046875,3.5634765625,-3.5234375
0.133,-1.4013671875,3.8037109375,-2.8427734375
0.1335,-2.2021484375,4.083984375,-2.2822265625
0.134,-3.2431640625,4.244140625,-1.44140625
0.1345,-3.5634765625,3.7236328125,-0.640625
0.135,-4.1240234375,3.6435546875,0.0
0.1355,-4.2041015625,2.962890625,0.7607421875
0.136,-4.484375,2.5625,1.44140625
0.1365,-4.564453125,1.681640625,2.2822265625
0.137,-4.6044921875,1.12109375,2.962890625
0.1375,-3.923828125,0.0400390625,3.2431640625
0.138,-3.8837890625,-0.640625,3.8837890625
0.1385,-2.9228515625,-1.6015625,3.9638671875
0.139,-2.6025390625,-2.2822265625,4.244140625
0.1395,-1.681640625,-3.283203125,4.32421875
0.14,-0.9609375,-3.6435546875,3.8837890625
0.1405,-0.16015625,-4.1240234375,3.6435546875
0.141,0.640625,-4.484375,3.1630859375
0.1415,1.5615234375,-4.64453125,2.4423828125
0.142,2.40234375,-4.8046875,1.76171875
0.1425,3.283203125,-4.884765625,1.0009765625
0.143,3.443359375,-4.2041015625,0.16015625
0.1435,4.00390625,-4.2041015625,-0.3603515625
0.144,4.083984375,-3.36328125,-1.28125
0.1445,4.2841796875,-2.962890625,-1.921875
0.145,4.32421875,-2.08203125,-2.8828125
0.1455,4.1640625,-1.361328125,-3.4033203125
0.146,3.5234375,-0.240234375,-3.8037109375
0.1465,3.283203125,0.560546875,-4.2841796875
0.147,2.322265625,1.6015625,-4.3642578125
0.1475,1.921875,2.2421875,-4.564453125
0.148,1.0009765625,3.2431640625,-4.64453125
0.1485,0.0400390625,3.5634765625,-4.00390625
0.149,-0.640625,4.083984375,-3.84375
0.1495,-1.76171875,4.3642578125,-3.04296875
0.15,-2.6025390625,4.484375,-2.2822265625
0.1505,-3.443359375,4.484375,-1.521484375
0.151,-4.2041015625,4.484375,-0.6806640625
0.1515,-4.3642578125,3.68359375,0.240234375
0.152,-4.884765625,3.603515625,0.8408203125
0.1525,-4.96484375,2.482421875,1.921875
0.153,-4.96484375,1.9619140625,2.4423828125
0.1535,-5.0048828125,1.0009765625,3.36328125
0.154,-4.5244140625,0.2001953125,3.84375
0.1545,-3.923828125,-0.8408203125,4.1640625
0.155,-3.4833984375,-1.681640625,4.564453125
0.1555,-2.4423828125,-2.8427734375,4.6044921875
0.156,-1.9619140625,-3.36328125,4.6044921875
0.1565,-1.0009765625,-4.244140625,4.5244140625
0.157,0.0400390625,-4.4443359375,3.763671875
0.1575,0.6806640625,-4.96484375,3.603515625
0.158,1.9619140625,-5.125,2.5224609375
0.1585,2.6826171875,-5.1650390625,1.921875
0.159,3.443359375,-5.0849609375,1.041015625
0.1595,4.0439453125,-4.884765625,0.2802734375
0.16,4.1640625,-4.1240234375,-0.640625
0.1605,4.6044921875,-4.00390625,-1.2412109375
0.161,4.6044921875,-2.8427734375,-2.4423828125
0.1615,4.564453125,-2.3623046875,-2.8427734375
0.162,4.6044921875,-1.361328125,-3.7236328125
0.1625,3.923828125,-0.3603515625,-4.0439453125
0.163,3.443359375,0.6005859375,-4.484375
0.1635,2.72265625,1.6015625,-4.7646484375
0.164,1.841796875,2.6025390625,-4.8447265625
0.1645,1.28125,3.0830078125,-4.724609375
0.165,0.2802734375,3.9638671875,-4.6044921875
0.1655,-0.80078125,4.1240234375,-3.763671875
0.166,-1.44140625,4.6044921875,-3.5634765625
0.1665,-2.8427734375,4.7646484375,-2.322265625
0.167,-3.4033203125,4.7646484375,-1.8017578125
0.1675,-4.2041015625,4.564453125,-0.80078125
0.168,-4.6845703125,4.2841796875,0.0
0.1685,-4.8447265625,3.4833984375,0.9208984375
0.169,-5.205078125,3.0830078125,1.5615234375
0.1695,-5.28515625,1.921875,2.7626953125
0.17,-5.0849609375,1.44140625,3.123046875
0.1705,-5.0048828125,0.48046875,4.00390625
0.171,-4.2041015625,-0.640625,4.2841796875
0.1715,-3.8037109375,-1.5615234375,4.724609375
0.172,-2.8828125,-2.642578125,4.884765625
0.1725,-2.0419921875,-3.5634765625,4.96484375
0.173,-1.28125,-4.00390625,4.6044921875
0.1735,-0.3203125,-4.7646484375,4.404296875
0.174,0.720703125,-4.884765625,3.5234375
0.1745,1.44140625,-5.3251953125,3.2431640625
0.175,2.8427734375,-5.4052734375,1.921875
0.1755,3.3232421875,-5.28515625,1.361328125
0.176,4.00390625,-5.0048828125,0.400390625
0.1765,4.404296875,-4.64453125,-0.4404296875
0.177,4.5244140625,-3.923828125,-1.2412109375
0.1775,4.8046875,-3.36328125,-2.08203125
0.178,4.8447265625,-2.2822265625,-3.0830078125
0.1785,4.484375,-1.6416015625,-3.36328125
0.179,4.404296875,-0.6806640625,-4.2041015625
0.1795,3.443359375,0.48046875,-4.3642578125
0.18,3.0830078125,1.28125,-4.7646484375
0.1805,2.0419921875,2.4423828125,-4.884765625
0.181,1.44140625,3.123046875,-4.96484375
0.1815,0.560546875,3.5634765625,-4.484375
0.182,-0.3603515625,4.2041015625,-4.244140625
0.1825,-1.361328125,4.32421875,-3.36328125
0.183,-2.08203125,4.7646484375,-3.04296875
0.1835,-3.443359375,4.8046875,-1.76171875
0.184,-3.8037109375,4.6044921875,-1.28125
0.1845,-4.484375,4.2841796875,-0.3203125
0.185,-4.7646484375,3.763671875,0.5205078125
0.1855,-5.0048828125,3.1630859375,1.28125
0.186,-5.125,2.482421875,2.2021484375
0.1865,-5.2451171875,1.6416015625,3.0830078125
0.187,-4.8046875,0.9208984375,3.3232421875
0.1875,-4.6845703125,0.0,4.1240234375
0.188,-3.7236328125,-1.1611328125,4.2841796875
0.1885,-3.4833984375,-1.841796875,4.724609375
0.189,-2.2822265625,-3.0830078125,4.7646484375
0.1895,-1.8017578125,-3.5634765625,4.7646484375
0.19,-0.80078125,-4.1240234375,4.2041015625
0.1905,0.0400390625,-4.6845703125,3.9638671875
0.191,1.0009765625,-4.8046875,3.1630859375
0.1915,1.841796875,-5.1650390625,2.6826171875
0.192,3.04296875,-5.2451171875,1.6015625
0.1925,3.283203125,-5.0048828125,1.0009765625
0.193,3.9638671875,-4.8046875,0.1201171875
0.1935,4.2041015625,-4.083984375,-0.6806640625
0.194,4.484375,-3.7236328125,-1.3212890625
0.1945,4.484375,-2.7626953125,-2.2822265625
0.195,4.6044921875,-2.162109375,-3.0029296875
0.1955,4.083984375,-1.28125,-3.36328125
0.196,3.9638671875,-0.400390625,-4.0439453125
0.1965,3.0029296875,0.7607421875,-4.1640625
0.197,2.7626953125,1.361328125,-4.564453125
0.1975,1.6416015625,2.5625,-4.6044921875
0.198,1.2412109375,2.8427734375,-4.5244140625
0.1985,0.240234375,3.4833984375,-4.0439453125
0.199,-0.6005859375,3.8837890625,-3.7236328125
0.1995,-1.44140625,4.1240234375,-3.0830078125
0.2,-2.2822265625,4.32421875,-2.4423828125
0.2005,-3.283203125,4.484375,-1.6416015625
0.201,-3.5634765625,3.9638671875,-1.0009765625
0.2015,-4.2041015625,3.9638671875,-0.2001953125
0.202,-4.32421875,3.203125,0.640625
0.2025,-4.64453125,2.962890625,1.2412109375
0.203,-4.6845703125,2.001953125,2.2021484375
0.2035,-4.7646484375,1.5615234375,2.6826171875
0.204,-4.2841796875,0.6005859375,3.1630859375
0.2045,-4.1240234375,-0.16015625,3.763671875
0.205,-3.3232421875,-1.2412109375,3.9638671875
0.2055,-3.04296875,-1.8818359375,4.32421875
0.206,-2.1220703125,-2.9228515625,4.404296875
0.2065,-1.6416015625,-3.203125,4.1240234375
0.207,-0.720703125,-3.84375,3.8837890625
0.2075,0.1201171875,-4.1640625,3.36328125
0.208,0.880859375,-4.5244140625,3.0029296875
0.2085,1.8818359375,-4.6845703125,2.162109375
0.209,2.6025390625,-4.884765625,1.6015625
0.2095,2.9228515625,-4.3642578125,0.880859375
0.21,3.5234375,-4.3642578125,0.240234375
0.2105,3.68359375,-3.603515625,-0.640625
0.211,4.00390625,-3.36328125,-1.201171875
0.2115,4.1240234375,-2.5224609375,-2.162109375
0.212,4.0439453125,-2.08203125,-2.5224609375
0.2125,3.68359375,-1.041015625,-3.1630859375
0.213,3.3232421875,-0.2802734375,-3.5634765625
0.2135,2.7626953125,0.640625,-3.84375
0.214,2.2822265625,1.4013671875,-4.083984375
0.2145,1.681640625,2.2421875,-4.32421875
0.215,0.9609375,2.482421875,-3.84375
0.2155,0.2802734375,3.203125,-3.84375
0.216,-0.640625,3.36328125,-3.1630859375
0.2165,-1.28125,3.8037109375,-2.9228515625
0.217,-2.322265625,3.8837890625,-2.0419921875
0.2175,-2.8427734375,4.00390625,-1.6015625
0.218,-3.2431640625,3.5634765625,-0.720703125
0.2185,-3.7236328125,3.5234375,-0.240234375
0.219,-3.8837890625,2.8828125,0.6005859375
0.2195,-4.1640625,2.5625,1.201171875
0.22,-4.404296875,1.8818359375,2.0419921875
0.2205,-4.1640625,1.3212890625,2.2822265625
0.221,-4.00390625,0.48046875,3.04296875
0.2215,-3.4833984375,-0.400390625,3.3232421875
0.222,-3.203125,-1.12109375,3.763671875
0.2225,-2.5625,-1.9619140625,3.84375
0.223,-2.1220703125,-2.5625,4.0439453125
0.2235,-1.3212890625,-2.8828125,3.5634765625
0.224,-0.720703125,-3.5634765625,3.6435546875
0.2245,0.240234375,-3.84375,2.9228515625
0.225,0.880859375,-4.244140625,2.6826171875
0.2255,1.8818359375,-4.3642578125,1.921875
0.226,2.2021484375,-4.32421875,1.521484375
0.2265,2.7626953125,-4.083984375,0.7607421875
0.227,3.123046875,-3.84375,0.16015625
0.2275,3.443359375,-3.443359375,-0.6005859375
0.228,3.603515625,-2.9228515625,-1.2412109375
