wavelength,x,y,z
0.0,19.228759765625,-9.479248046875,-8.998779296875
0.0005,18.908447265625,-5.515380859375,-12.722412109375
0.001,18.027587890625,-1.951904296875,-15.525146484375
0.0015,16.466064453125,1.611572265625,-17.366943359375
0.002,14.864501953125,4.734619140625,-18.928466796875
0.0025,12.021728515625,7.537353515625,-18.928466796875
0.003,8.458251953125,10.940673828125,-18.888427734375
0.0035,4.614501953125,14.223876953125,-18.447998046875
0.004,0.130126953125,16.746337890625,-16.646240234375
0.0045,-3.353271484375,18.187744140625,-14.924560546875
0.005,-6.035888671875,18.788330078125,-13.042724609375
0.0055,-8.918701171875,18.988525390625,-10.600341796875
0.006,-12.602294921875,18.427978515625,-6.516357421875
0.0065,-15.364990234375,17.467041015625,-2.992919921875
0.007,-17.487060546875,15.825439453125,0.890869140625
0.0075,-18.928466796875,13.943603515625,4.134033203125
0.008,-19.048583984375,11.100830078125,7.016845703125
0.0085,-19.208740234375,7.777587890625,10.460205078125
0.009,-18.928466796875,4.093994140625,13.983642578125
0.0095,-17.807373046875,0.250244140625,16.666259765625
0.01,-16.005615234375,-3.153076171875,18.267822265625
0.0105,-14.243896484375,-5.995849609375,19.468994140625
0.011,-11.401123046875,-8.878662109375,19.589111328125
0.0115,-6.996826171875,-12.602294921875,19.028564453125
0.012,-3.072998046875,-15.525146484375,18.187744140625
0.0125,1.291259765625,-17.807373046875,16.345947265625
0.013,4.534423828125,-19.088623046875,14.584228515625
0.0135,7.457275390625,-19.168701171875,12.021728515625
0.014,10.540283203125,-19.248779296875,9.259033203125
0.0145,14.143798828125,-18.568115234375,5.054931640625
0.015,16.826416015625,-17.166748046875,1.131103515625
0.0155,18.548095703125,-15.324951171875,-2.472412109375
0.016,19.629150390625,-13.202880859375,-5.635498046875
0.0165,19.428955078125,-10.320068359375,-8.598388671875
0.017,19.348876953125,-6.436279296875,-12.201904296875
0.0175,18.908447265625,-2.912841796875,-15.324951171875
0.018,17.427001953125,1.131103515625,-17.807373046875
0.0185,15.425048828125,4.414306640625,-19.128662109375
0.019,12.942626953125,7.297119140625,-19.609130859375
0.0195,10.099853515625,10.340087890625,-19.889404296875
0.02,5.175048828125,14.223876953125,-19.008544921875
0.0205,0.970947265625,16.786376953125,-17.567138671875
0.021,-2.912841796875,18.628173828125,-15.725341796875
0.0215,-6.075927734375,19.669189453125,-13.883544921875
0.022,-9.118896484375,19.388916015625,-10.760498046875
0.0225,-12.281982421875,19.188720703125,-7.557373046875
0.023,-15.565185546875,18.427978515625,-3.713623046875
0.0235,-18.047607421875,16.586181640625,0.610595703125
0.024,-19.288818359375,14.584228515625,3.813720703125
0.0245,-19.929443359375,12.061767578125,6.976806640625
0.025,-19.969482421875,9.018798828125,10.019775390625
0.0255,-19.529052734375,4.774658203125,13.823486328125
0.026,-18.568115234375,1.131103515625,16.666259765625
0.0265,-16.966552734375,-2.712646484375,18.788330078125
0.027,-14.964599609375,-5.835693359375,19.989501953125
0.0275,-11.841552734375,-8.798583984375,19.869384765625
0.028,-8.598388671875,-12.081787109375,19.989501953125
0.0285,-3.833740234375,-15.645263671875,19.028564453125
0.029,0.850830078125,-17.967529296875,16.946533203125
0.0295,4.134033203125,-19.248779296875,15.184814453125
0.03,7.217041015625,-20.049560546875,13.102783203125
0.0305,10.219970703125,-19.809326171875,9.979736328125
0.031,13.743408203125,-19.208740234375,6.095947265625
0.0315,16.746337890625,-18.207763671875,2.252197265625
0.032,18.988525390625,-16.165771484375,-2.072021484375
0.0325,19.909423828125,-14.123779296875,-5.074951171875
0.033,20.149658203125,-11.200927734375,-8.197998046875
0.0335,20.109619140625,-7.837646484375,-11.561279296875
0.034,19.589111328125,-3.673583984375,-15.164794921875
0.0345,18.187744140625,0.250244140625,-17.647216796875
0.035,16.385986328125,3.693603515625,-19.328857421875
0.0355,14.303955078125,6.856689453125,-20.449951171875
0.036,10.820556640625,9.939697265625,-20.169677734375
0.0365,6.776611328125,13.463134765625,-19.729248046875
0.037,2.372314453125,16.706298828125,-18.808349609375
0.0375,-2.352294921875,18.908447265625,-16.566162109375
0.038,-5.315185546875,19.829345703125,-14.724365234375
0.0385,-8.518310546875,20.229736328125,-12.161865234375
0.039,-11.801513671875,19.949462890625,-8.838623046875
0.0395,-15.284912109375,19.068603515625,-4.634521484375
0.04,-18.007568359375,17.667236328125,-0.630615234375
0.0405,-19.889404296875,15.585205078125,3.333251953125
0.041,-20.610107421875,13.222900390625,6.416259765625
0.0415,-20.530029296875,9.779541015625,9.739501953125
0.042,-20.369873046875,6.176025390625,13.302978515625
0.0425,-19.689208984375,2.132080078125,16.706298828125
0.043,-17.887451171875,-2.112060546875,19.148681640625
0.0435,-15.885498046875,-5.235107421875,20.269775390625
0.044,-13.483154296875,-8.358154296875,21.070556640625
0.0445,-9.759521484375,-11.641357421875,20.710205078125
0.045,-5.155029296875,-15.164794921875,19.829345703125
0.0455,-0.630615234375,-18.007568359375,18.347900390625
0.046,3.853759765625,-19.969482421875,16.065673828125
0.0465,6.736572265625,-20.489990234375,13.943603515625
0.047,10.099853515625,-20.489990234375,10.860595703125
0.0475,13.423095703125,-20.169677734375,7.337158203125
0.048,16.826416015625,-19.048583984375,3.012939453125
0.0485,19.228759765625,-17.126708984375,-1.391357421875
0.049,20.590087890625,-15.044677734375,-4.754638671875
0.0495,21.070556640625,-12.362060546875,-7.957763671875
0.05,20.790283203125,-8.678466796875,-11.361083984375
0.0505,20.229736328125,-4.794677734375,-14.644287109375
0.051,19.268798828125,-0.830810546875,-17.687255859375
0.0515,17.226806640625,3.493408203125,-19.889404296875
0.052,14.864501953125,6.456298828125,-20.530029296875
0.0525,11.901611328125,9.619384765625,-20.930419921875
0.053,7.937744140625,13.182861328125,-20.570068359375
0.0535,3.213134765625,16.546142578125,-19.408935546875
0.054,-1.311279296875,18.788330078125,-17.447021484375
0.0545,-5.074951171875,20.349853515625,-15.445068359375
0.055,-7.997802734375,20.670166015625,-13.082763671875
0.0555,-11.240966796875,20.349853515625,-9.759521484375
0.056,-14.524169921875,19.869384765625,-6.115966796875
0.0565,-17.687255859375,18.508056640625,-1.751708984375
0.057,-19.849365234375,16.185791015625,2.692626953125
0.0575,-20.650146484375,14.023681640625,5.655517578125
0.058,-21.010498046875,11.100830078125,8.978759765625
0.0585,-20.690185546875,7.096923828125,12.662353515625
0.059,-19.969482421875,3.173095703125,15.905517578125
0.0595,-18.648193359375,-0.710693359375,18.427978515625
0.06,-16.686279296875,-4.554443359375,20.429931640625
0.0605,-14.243896484375,-7.477294921875,20.910400390625
0.061,-11.040771484375,-10.600341796875,20.870361328125
0.0615,-6.916748046875,-14.083740234375,20.429931640625
0.062,-1.991943359375,-17.366943359375,18.988525390625
0.0625,2.532470703125,-19.368896484375,16.706298828125
0.063,5.615478515625,-20.369873046875,14.864501953125
0.0635,8.818603515625,-20.690185546875,12.302001953125
0.064,12.221923828125,-20.209716796875,8.538330078125
0.0645,15.425048828125,-19.529052734375,4.774658203125
0.065,18.307861328125,-18.087646484375,0.570556640625
0.0655,20.309814453125,-15.805419921875,-3.713623046875
0.066,20.750244140625,-13.282958984375,-6.596435546875
0.0665,20.950439453125,-10.199951171875,-9.959716796875
0.067,20.510009765625,-6.196044921875,-13.523193359375
0.0675,19.709228515625,-2.192138671875,-16.806396484375
0.068,17.947509765625,1.851806640625,-18.968505859375
0.0685,16.065673828125,5.255126953125,-20.530029296875
0.069,13.262939453125,8.298095703125,-20.970458984375
0.0695,9.459228515625,11.781494140625,-20.650146484375
0.07,5.375244140625,15.184814453125,-20.129638671875
0.0705,0.450439453125,18.227783203125,-18.528076171875
0.071,-3.953857421875,20.109619140625,-16.205810546875
0.0715,-6.756591796875,20.630126953125,-14.163818359375
0.072,-10.119873046875,20.870361328125,-11.321044921875
0.0725,-13.803466796875,20.189697265625,-7.237060546875
0.073,-16.886474609375,19.228759765625,-3.273193359375
0.0735,-19.328857421875,17.427001953125,0.970947265625
0.074,-21.130615234375,15.224853515625,4.934814453125
0.0745,-21.330810546875,12.302001953125,8.057861328125
0.075,-21.410888671875,8.778564453125,11.661376953125
0.0755,-20.890380859375,4.774658203125,15.264892578125
0.076,-19.849365234375,0.450439453125,18.508056640625
0.0765,-17.647216796875,-3.753662109375,20.469970703125
0.077,-15.565185546875,-6.876708984375,21.551025390625
0.0775,-12.522216796875,-10.119873046875,21.871337890625
0.078,-7.877685546875,-14.003662109375,21.270751953125
0.0785,-3.593505859375,-17.166748046875,20.269775390625
0.079,1.411376953125,-19.809326171875,18.227783203125
0.0795,5.615478515625,-21.450927734375,15.945556640625
0.08,8.578369140625,-21.490966796875,13.302978515625
0.0805,11.901611328125,-21.651123046875,10.260009765625
0.081,15.745361328125,-20.850341796875,5.775634765625
0.0815,18.908447265625,-19.288818359375,1.291259765625
0.082,20.990478515625,-17.046630859375,-3.072998046875
0.0825,22.271728515625,-14.724365234375,-6.636474609375
0.083,22.191650390625,-11.361083984375,-9.959716796875
0.0835,21.911376953125,-7.076904296875,-14.003662109375
0.084,21.150634765625,-3.193115234375,-17.166748046875
0.0845,19.669189453125,1.251220703125,-20.049560546875
0.085,17.146728515625,5.415283203125,-21.771240234375
0.0855,14.584228515625,8.458251953125,-22.131591796875
0.086,11.301025390625,11.781494140625,-22.451904296875
0.0865,6.015869140625,15.865478515625,-21.410888671875
0.087,1.451416015625,18.828369140625,-19.969482421875
0.0875,-3.233154296875,20.910400390625,-17.727294921875
0.088,-7.076904296875,22.231689453125,-15.525146484375
0.0885,-10.239990234375,21.911376953125,-12.241943359375
0.089,-13.723388671875,21.631103515625,-8.718505859375
0.0895,-17.286865234375,20.710205078125,-4.354248046875
0.09,-20.209716796875,18.788330078125,0.490478515625
0.0905,-21.931396484375,16.345947265625,4.574462890625
0.091,-22.692138671875,13.663330078125,7.977783203125
0.0915,-22.612060546875,10.179931640625,11.421142578125
0.092,-22.011474609375,5.455322265625,15.625244140625
0.0925,-21.010498046875,1.531494140625,18.548095703125
0.093,-19.208740234375,-2.792724609375,21.030517578125
0.0935,-16.766357421875,-6.676513671875,22.592041015625
0.094,-13.483154296875,-9.759521484375,22.431884765625
0.0945,-10.239990234375,-13.082763671875,22.552001953125
0.095,-4.914794921875,-17.006591796875,21.430908203125
0.0955,0.290283203125,-19.849365234375,19.348876953125
0.096,4.494384765625,-21.490966796875,16.986572265625
0.0965,7.977783203125,-22.491943359375,14.744384765625
0.097,11.421142578125,-22.131591796875,11.180908203125
0.0975,15.064697265625,-21.450927734375,7.056884765625
0.098,18.307861328125,-20.449951171875,2.972900390625
0.0985,21.030517578125,-18.247802734375,-1.911865234375
0.099,22.431884765625,-15.725341796875,-5.755615234375
0.0995,22.712158203125,-12.682373046875,-9.078857421875
0.1,22.712158203125,-9.359130859375,-12.482177734375
0.1005,21.951416015625,-4.514404296875,-16.606201171875
0.101,20.550048828125,-0.310302734375,-19.489013671875
0.1015,18.387939453125,3.893798828125,-21.490966796875
0.102,16.065673828125,7.577392578125,-22.892333984375
0.1025,12.181884765625,10.940673828125,-22.451904296875
0.103,8.097900390625,14.704345703125,-22.211669921875
0.1035,3.333251953125,18.227783203125,-21.170654296875
0.104,-2.112060546875,20.870361328125,-18.728271484375
0.1045,-5.915771484375,22.071533203125,-16.365966796875
0.105,-9.319091796875,22.552001953125,-13.803466796875
0.1055,-12.682373046875,22.391845703125,-10.400146484375
0.106,-16.646240234375,21.310791015625,-5.595458984375
0.1065,-19.729248046875,19.869384765625,-1.191162109375
0.107,-21.971435546875,17.507080078125,3.453369140625
0.1075,-23.092529296875,14.904541015625,7.096923828125
0.108,-22.932373046875,11.220947265625,10.620361328125
0.1085,-22.812255859375,7.377197265625,14.384033203125
0.109,-21.971435546875,2.812744140625,18.227783203125
0.1095,-20.209716796875,-1.791748046875,21.030517578125
0.11,-17.767333984375,-5.675537109375,22.471923828125
0.1105,-15.405029296875,-9.118896484375,23.633056640625
0.111,-11.401123046875,-12.522216796875,23.192626953125
0.1115,-6.396240234375,-16.406005859375,22.231689453125
0.112,-1.711669921875,-19.609130859375,21.030517578125
0.1125,3.653564453125,-22.051513671875,18.267822265625
0.113,7.217041015625,-22.892333984375,15.865478515625
0.1135,10.820556640625,-22.852294921875,12.502197265625
0.114,14.223876953125,-22.572021484375,9.018798828125
0.1145,18.187744140625,-21.250732421875,3.973876953125
0.115,21.030517578125,-19.288818359375,-0.830810546875
0.1155,22.752197265625,-16.846435546875,-4.914794921875
0.116,23.552978515625,-14.083740234375,-8.478271484375
0.1165,23.072509765625,-10.079833984375,-12.081787109375
0.117,22.552001953125,-5.915771484375,-15.805419921875
0.1175,21.631103515625,-1.631591796875,-19.168701171875
0.118,19.468994140625,3.173095703125,-21.731201171875
0.1185,16.786376953125,6.736572265625,-22.732177734375
0.119,13.783447265625,10.179931640625,-23.212646484375
0.1195,9.899658203125,13.623291015625,-23.012451171875
0.12,4.374267578125,17.587158203125,-21.611083984375
0.1205,-0.430419921875,20.309814453125,-19.809326171875
0.121,-4.914794921875,22.271728515625,-17.326904296875
0.1215,-8.398193359375,22.872314453125,-14.884521484375
0.122,-12.001708984375,22.431884765625,-11.040771484375
0.1225,-15.405029296875,21.951416015625,-7.437255859375
0.123,-18.928466796875,20.630126953125,-2.712646484375
0.1235,-21.490966796875,18.227783203125,2.252197265625
0.124,-22.612060546875,15.745361328125,5.815673828125
0.1245,-23.212646484375,12.782470703125,9.379150390625
0.125,-22.852294921875,8.898681640625,12.942626953125
0.1255,-22.091552734375,4.334228515625,16.786376953125
0.126,-20.810302734375,0.130126953125,19.789306640625
0.1265,-18.648193359375,-4.354248046875,22.111572265625
0.127,-16.045654296875,-7.717529296875,22.912353515625
0.1275,-12.562255859375,-11.080810546875,22.832275390625
0.128,-8.678466796875,-14.684326171875,22.672119140625
0.1285,-3.193115234375,-18.447998046875,21.110595703125
0.129,1.971923828125,-20.730224609375,18.708251953125
0.1295,5.695556640625,-22.091552734375,16.506103515625
0.13,9.098876953125,-22.692138671875,13.943603515625
0.1305,12.542236328125,-22.091552734375,10.099853515625
0.131,16.065673828125,-21.330810546875,6.015869140625
0.1315,19.348876953125,-19.929443359375,1.531494140625
0.132,21.711181640625,-17.406982421875,-3.393310546875
0.1325,22.431884765625,-14.924560546875,-6.556396484375
0.133,22.592041015625,-11.641357421875,-10.079833984375
0.1335,22.271728515625,-7.757568359375,-13.643310546875
0.134,21.470947265625,-3.233154296875,-17.366943359375
0.1345,19.789306640625,0.970947265625,-19.889404296875
0.135,17.667236328125,4.894775390625,-21.771240234375
0.1355,15.024658203125,8.298095703125,-22.572021484375
0.136,11.180908203125,11.661376953125,-22.171630859375
0.1365,6.896728515625,15.264892578125,-21.731201171875
0.137,1.971923828125,18.748291015625,-20.409912109375
0.1375,-3.193115234375,20.950439453125,-17.767333984375
0.138,-6.396240234375,21.791259765625,-15.645263671875
0.1385,-9.879638671875,22.191650390625,-12.842529296875
0.139,-13.403076171875,21.631103515625,-9.038818359375
0.1395,-16.846435546875,20.630126953125,-4.634521484375
0.14,-19.689208984375,19.028564453125,-0.310302734375
0.1405,-21.771240234375,16.546142578125,4.214111328125
0.141,-22.291748046875,13.823486328125,7.417236328125
0.1415,-22.291748046875,10.219970703125,11.060791015625
0.142,-21.931396484375,6.256103515625,14.744384765625
0.1425,-21.090576171875,1.851806640625,18.307861328125
0.143,-19.008544921875,-2.632568359375,20.670166015625
0.1435,-16.846435546875,-6.075927734375,21.991455078125
0.144,-14.163818359375,-9.399169921875,22.752197265625
0.1445,-9.959716796875,-12.962646484375,22.151611328125
0.145,-5.315185546875,-16.526123046875,21.270751953125
0.1455,-0.390380859375,-19.529052734375,19.589111328125
0.146,4.494384765625,-21.531005859375,17.106689453125
0.1465,7.537353515625,-21.931396484375,14.664306640625
0.147,11.140869140625,-21.931396484375,11.501220703125
0.1475,14.704345703125,-21.490966796875,7.537353515625
0.148,18.107666015625,-20.209716796875,2.972900390625
0.1485,20.590087890625,-18.167724609375,-1.591552734375
0.149,22.151611328125,-15.885498046875,-5.435302734375
0.1495,22.552001953125,-12.802490234375,-8.798583984375
0.15,22.271728515625,-8.958740234375,-12.482177734375
0.1505,21.671142578125,-4.954833984375,-15.925537109375
0.151,20.550048828125,-0.590576171875,-19.208740234375
0.1515,18.227783203125,3.973876953125,-21.370849609375
0.152,15.705322265625,7.096923828125,-22.091552734375
0.1525,12.662353515625,10.500244140625,-22.531982421875
0.153,8.017822265625,14.343994140625,-21.931396484375
0.1535,3.333251953125,17.707275390625,-20.690185546875
0.154,-1.431396484375,20.109619140625,-18.568115234375
0.1545,-5.675537109375,21.791259765625,-16.365966796875
0.155,-8.718505859375,21.911376953125,-13.683349609375
0.1555,-12.121826171875,21.711181640625,-10.239990234375
0.156,-15.685302734375,21.030517578125,-6.276123046875
0.1565,-18.848388671875,19.509033203125,-1.591552734375
0.157,-21.010498046875,17.026611328125,2.972900390625
0.1575,-21.971435546875,14.704345703125,6.256103515625
0.158,-22.251708984375,11.541259765625,9.699462890625
0.1585,-21.811279296875,7.177001953125,13.663330078125
0.159,-21.010498046875,3.213134765625,16.866455078125
0.1595,-19.609130859375,-0.910888671875,19.509033203125
0.16,-17.366943359375,-5.074951171875,21.510986328125
0.1605,-14.684326171875,-7.997802734375,21.831298828125
0.161,-11.561279296875,-11.240966796875,21.951416015625
0.1615,-7.036865234375,-14.884521484375,21.270751953125
0.162,-2.031982421875,-18.087646484375,19.709228515625
0.1625,2.532470703125,-20.009521484375,17.386962890625
0.163,5.895751953125,-21.210693359375,15.425048828125
0.1635,9.098876953125,-21.330810546875,12.662353515625
0.164,12.542236328125,-20.810302734375,8.818603515625
0.1645,15.745361328125,-20.049560546875,5.054931640625
0.165,18.628173828125,-18.488037109375,0.690673828125
0.1655,20.590087890625,-16.125732421875,-3.593505859375
0.166,21.030517578125,-13.603271484375,-6.516357421875
0.1665,21.270751953125,-10.560302734375,-9.799560546875
0.167,20.790283203125,-6.436279296875,-13.523193359375
0.1675,19.909423828125,-2.472412109375,-16.646240234375
0.168,18.227783203125,1.411376953125,-18.848388671875
0.1685,16.345947265625,4.934814453125,-20.570068359375
0.169,13.503173828125,7.937744140625,-20.850341796875
0.1695,9.979736328125,11.260986328125,-20.650146484375
0.17,5.895751953125,14.704345703125,-20.169677734375
0.1705,1.051025390625,17.747314453125,-18.528076171875
0.171,-3.193115234375,19.509033203125,-16.325927734375
0.1715,-6.035888671875,20.189697265625,-14.404052734375
0.172,-9.279052734375,20.429931640625,-11.641357421875
0.1725,-12.842529296875,19.829345703125,-7.677490234375
0.173,-15.845458984375,18.948486328125,-3.993896484375
0.1735,-18.287841796875,17.306884765625,0.130126953125
0.174,-20.129638671875,15.224853515625,3.973876953125
0.1745,-20.369873046875,12.502197265625,6.896728515625
0.175,-20.489990234375,9.299072265625,10.260009765625
0.1755,-20.169677734375,5.415283203125,13.823486328125
0.176,-19.208740234375,1.331298828125,17.026611328125
0.1765,-17.286865234375,-2.592529296875,18.988525390625
0.177,-15.485107421875,-5.595458984375,20.189697265625
0.1775,-12.762451171875,-8.638427734375,20.630126953125
0.178,-8.558349609375,-12.281982421875,20.189697265625
0.1785,-4.594482421875,-15.324951171875,19.388916015625
0.179,0.090087890625,-17.927490234375,17.587158203125
0.1795,4.013916015625,-19.569091796875,15.585205078125
0.18,6.696533203125,-19.849365234375,13.302978515625
0.1805,9.779541015625,-20.049560546875,10.740478515625
0.181,13.463134765625,-19.529052734375,6.656494140625
