wavelength,x,y,z
0.0,20.670166015625,-15.565185546875,-4.234130859375
0.0005,21.310791015625,-13.122802734375,-7.397216796875
0.001,21.110595703125,-9.959716796875,-10.360107421875
0.0015,20.510009765625,-5.755615234375,-14.083740234375
0.002,19.509033203125,-1.791748046875,-16.966552734375
0.0025,17.386962890625,2.492431640625,-19.288818359375
0.003,14.864501953125,5.975830078125,-20.129638671875
0.0035,12.181884765625,9.098876953125,-20.610107421875
0.004,8.818603515625,12.342041015625,-20.610107421875
0.0045,3.773681640625,15.985595703125,-19.368896484375
0.005,-0.950927734375,18.427978515625,-17.326904296875
0.0055,-4.634521484375,19.989501953125,-15.405029296875
0.006,-7.757568359375,20.710205078125,-13.282958984375
0.0065,-10.880615234375,20.670166015625,-10.320068359375
0.007,-14.043701171875,20.189697265625,-6.876708984375
0.0075,-17.006591796875,18.948486328125,-2.832763671875
0.008,-19.248779296875,16.586181640625,1.771728515625
0.0085,-20.049560546875,14.343994140625,4.774658203125
0.009,-20.570068359375,11.821533203125,7.817626953125
0.0095,-20.489990234375,8.698486328125,10.860595703125
0.01,-19.689208984375,4.334228515625,14.504150390625
0.0105,-18.207763671875,0.410400390625,17.146728515625
0.011,-16.365966796875,-3.513427734375,19.028564453125
0.0115,-14.083740234375,-6.636474609375,19.909423828125
0.012,-11.120849609375,-9.639404296875,19.989501953125
0.0125,-7.397216796875,-13.082763671875,19.869384765625
0.013,-2.752685546875,-16.325927734375,18.628173828125
0.0135,1.971923828125,-18.528076171875,16.345947265625
0.014,5.054931640625,-19.569091796875,14.584228515625
0.0145,8.137939453125,-20.329833984375,12.462158203125
0.015,11.180908203125,-20.249755859375,9.579345703125
0.0155,14.584228515625,-19.489013671875,5.535400390625
0.016,17.266845703125,-18.047607421875,1.571533203125
0.0165,19.148681640625,-15.925537109375,-2.512451171875
0.017,19.789306640625,-13.723388671875,-5.275146484375
0.0175,20.029541015625,-10.920654296875,-8.358154296875
0.018,19.909423828125,-7.557373046875,-11.601318359375
0.0185,19.188720703125,-3.513427734375,-14.924560546875
0.019,17.306884765625,0.770751953125,-17.286865234375
0.0195,15.304931640625,4.134033203125,-18.728271484375
0.02,13.062744140625,7.217041015625,-19.609130859375
0.0205,9.819580078125,10.300048828125,-19.529052734375
0.021,5.615478515625,13.743408203125,-18.928466796875
0.0215,1.291259765625,16.666259765625,-17.647216796875
0.022,-3.153076171875,18.588134765625,-15.445068359375
0.0225,-5.955810546875,19.348876953125,-13.563232421875
0.023,-8.998779296875,19.869384765625,-11.281005859375
0.0235,-12.041748046875,19.709228515625,-8.318115234375
0.024,-15.204833984375,18.708251953125,-4.314208984375
0.0245,-17.607177734375,16.786376953125,-0.150146484375
0.025,-19.088623046875,14.824462890625,3.373291015625
0.0255,-19.569091796875,12.502197265625,6.095947265625
0.026,-19.689208984375,9.619384765625,9.178955078125
0.0265,-19.208740234375,5.815673828125,12.542236328125
0.027,-18.407958984375,1.971923828125,15.585205078125
0.0275,-16.365966796875,-2.072021484375,17.627197265625
0.028,-14.364013671875,-5.074951171875,18.588134765625
0.0285,-12.121826171875,-8.037841796875,19.388916015625
0.029,-8.638427734375,-11.240966796875,19.188720703125
0.0295,-4.274169921875,-14.444091796875,18.187744140625
0.03,0.130126953125,-16.926513671875,16.546142578125
0.0305,3.853759765625,-18.648193359375,14.744384765625
0.031,6.576416015625,-19.208740234375,12.782470703125
0.0315,9.539306640625,-19.529052734375,10.380126953125
0.032,12.782470703125,-19.208740234375,6.976806640625
0.0325,15.665283203125,-18.127685546875,3.093017578125
0.033,17.787353515625,-16.085693359375,-1.031005859375
0.0335,18.828369140625,-14.123779296875,-3.953857421875
0.034,19.308837890625,-11.761474609375,-6.796630859375
0.0345,19.268798828125,-8.678466796875,-9.919677734375
0.035,18.628173828125,-4.794677734375,-13.122802734375
0.0355,17.467041015625,-0.950927734375,-15.845458984375
0.036,15.585205078125,2.852783203125,-17.687255859375
0.0365,13.343017578125,5.695556640625,-18.407958984375
0.037,10.940673828125,8.578369140625,-18.928466796875
0.0375,7.056884765625,12.101806640625,-18.688232421875
0.038,2.852783203125,15.024658203125,-17.647216796875
0.0385,-1.431396484375,17.146728515625,-15.605224609375
0.039,-4.634521484375,18.508056640625,-14.003662109375
0.0395,-7.397216796875,19.068603515625,-12.001708984375
0.04,-10.280029296875,19.148681640625,-9.359130859375
0.0405,-13.443115234375,18.548095703125,-5.795654296875
0.041,-16.125732421875,17.106689453125,-1.831787109375
0.0415,-18.007568359375,15.064697265625,2.052001953125
0.042,-18.648193359375,13.102783203125,4.654541015625
0.0425,-19.128662109375,10.660400390625,7.617431640625
0.043,-18.968505859375,7.096923828125,10.980712890625
0.0435,-18.287841796875,3.453369140625,13.983642578125
0.044,-16.686279296875,-0.510498046875,16.305908203125
0.0445,-14.924560546875,-3.873779296875,17.987548828125
0.045,-12.682373046875,-6.596435546875,18.548095703125
0.0455,-9.959716796875,-9.559326171875,18.788330078125
0.046,-5.915771484375,-13.002685546875,18.307861328125
0.0465,-1.431396484375,-15.925537109375,16.946533203125
0.047,2.572509765625,-17.727294921875,15.024658203125
0.0475,5.375244140625,-18.648193359375,13.423095703125
0.048,8.298095703125,-19.248779296875,11.260986328125
0.0485,11.461181640625,-19.128662109375,8.097900390625
0.049,14.424072265625,-18.407958984375,4.614501953125
0.0495,16.906494140625,-16.646240234375,0.490478515625
0.05,18.548095703125,-14.724365234375,-3.153076171875
0.0505,18.908447265625,-12.442138671875,-5.755615234375
0.051,19.308837890625,-9.799560546875,-8.798583984375
0.0515,18.868408203125,-5.835693359375,-12.241943359375
0.052,17.987548828125,-2.112060546875,-15.204833984375
0.0525,16.065673828125,1.771728515625,-17.126708984375
0.053,14.223876953125,4.894775390625,-18.407958984375
0.0535,11.781494140625,7.817626953125,-19.008544921875
0.054,8.137939453125,11.220947265625,-18.808349609375
0.0545,4.294189453125,14.223876953125,-18.127685546875
0.055,-0.390380859375,16.946533203125,-16.406005859375
0.0555,-4.114013671875,18.548095703125,-14.524169921875
0.056,-6.796630859375,19.068603515625,-12.562255859375
0.0565,-9.679443359375,19.549072265625,-10.440185546875
0.057,-13.242919921875,19.028564453125,-6.476318359375
0.0575,-15.885498046875,17.867431640625,-2.792724609375
0.058,-17.967529296875,15.905517578125,1.211181640625
0.0585,-19.248779296875,13.863525390625,4.494384765625
0.059,-19.489013671875,11.341064453125,7.257080078125
0.0595,-19.569091796875,8.177978515625,10.540283203125
0.06,-18.928466796875,4.334228515625,13.743408203125
0.0605,-17.687255859375,0.170166015625,16.626220703125
0.061,-15.525146484375,-3.553466796875,18.227783203125
0.0615,-13.443115234375,-6.316162109375,18.948486328125
0.062,-11.000732421875,-9.239013671875,19.509033203125
0.0625,-6.516357421875,-12.962646484375,18.908447265625
0.063,-2.552490234375,-15.645263671875,17.787353515625
0.0635,1.851806640625,-17.807373046875,15.825439453125
0.064,5.255126953125,-19.248779296875,14.023681640625
0.0645,7.977783203125,-19.489013671875,11.661376953125
0.065,10.860595703125,-19.809326171875,9.339111328125
0.0655,14.384033203125,-19.008544921875,5.255126953125
0.066,16.946533203125,-17.366943359375,1.131103515625
0.0665,18.628173828125,-15.364990234375,-2.552490234375
0.067,19.468994140625,-13.202880859375,-5.475341796875
0.0675,19.709228515625,-10.600341796875,-8.318115234375
0.068,19.428955078125,-6.716552734375,-11.961669921875
0.0685,18.628173828125,-3.273193359375,-14.604248046875
0.069,16.946533203125,0.930908203125,-17.126708984375
0.0695,14.864501953125,4.494384765625,-18.648193359375
0.07,12.302001953125,7.217041015625,-18.928466796875
0.0705,9.859619140625,10.139892578125,-19.368896484375
0.071,5.054931640625,13.943603515625,-18.568115234375
0.0715,0.770751953125,16.586181640625,-17.046630859375
0.072,-3.072998046875,18.227783203125,-15.164794921875
0.0725,-6.236083984375,19.348876953125,-13.403076171875
0.073,-9.078857421875,19.509033203125,-10.920654296875
0.0735,-12.161865234375,19.348876953125,-7.797607421875
0.074,-15.124755859375,18.548095703125,-4.194091796875
0.0745,-17.647216796875,16.586181640625,0.210205078125
0.075,-18.968505859375,14.504150390625,3.573486328125
0.0755,-19.368896484375,12.181884765625,6.336181640625
0.076,-19.729248046875,9.619384765625,9.259033203125
0.0765,-19.208740234375,5.175048828125,13.102783203125
0.077,-18.087646484375,1.571533203125,15.705322265625
0.0775,-16.245849609375,-2.192138671875,17.627197265625
0.078,-14.404052734375,-5.555419921875,19.108642578125
0.0785,-11.561279296875,-8.318115234375,19.148681640625
0.079,-8.398193359375,-11.481201171875,19.228759765625
0.0795,-4.114013671875,-14.804443359375,18.427978515625
0.08,0.770751953125,-17.366943359375,16.426025390625
0.0805,4.134033203125,-18.808349609375,14.584228515625
0.081,7.056884765625,-19.569091796875,12.662353515625
0.0815,9.939697265625,-19.889404296875,10.420166015625
0.082,13.543212890625,-19.248779296875,6.256103515625
0.0825,16.145751953125,-18.167724609375,2.692626953125
0.083,18.307861328125,-16.165771484375,-1.391357421875
0.0835,19.509033203125,-14.083740234375,-4.634521484375
0.084,19.589111328125,-11.401123046875,-7.437255859375
0.0845,19.869384765625,-8.598388671875,-10.560302734375
0.085,19.228759765625,-4.354248046875,-14.123779296875
0.0855,17.667236328125,-0.190185546875,-16.806396484375
0.086,15.585205078125,3.373291015625,-18.207763671875
0.0865,13.583251953125,6.536376953125,-19.448974609375
0.087,10.700439453125,9.459228515625,-19.609130859375
0.0875,6.336181640625,13.222900390625,-19.048583984375
0.088,2.412353515625,15.825439453125,-18.287841796875
0.0885,-2.312255859375,18.347900390625,-16.005615234375
0.089,-5.635498046875,19.509033203125,-14.083740234375
0.0895,-8.598388671875,19.869384765625,-11.641357421875
0.09,-11.401123046875,20.189697265625,-9.399169921875
0.0905,-15.084716796875,19.188720703125,-4.834716796875
0.091,-17.607177734375,17.427001953125,-0.710693359375
0.0915,-19.168701171875,15.385009765625,2.892822265625
0.092,-20.169677734375,13.182861328125,6.055908203125
0.0925,-20.049560546875,10.219970703125,8.978759765625
0.093,-19.889404296875,6.536376953125,12.502197265625
0.0935,-19.168701171875,2.772705078125,15.505126953125
0.094,-17.286865234375,-1.671630859375,18.067626953125
0.0945,-14.964599609375,-5.074951171875,19.228759765625
0.095,-12.642333984375,-8.037841796875,19.869384765625
0.0955,-9.839599609375,-11.040771484375,20.149658203125
0.096,-4.634521484375,-14.884521484375,18.988525390625
0.0965,-0.470458984375,-17.487060546875,17.547119140625
0.097,3.693603515625,-19.288818359375,15.545166015625
0.0975,6.896728515625,-20.329833984375,13.583251953125
0.098,10.099853515625,-20.329833984375,10.620361328125
0.0985,12.982666015625,-20.249755859375,7.817626953125
0.099,16.345947265625,-19.208740234375,3.613525390625
0.0995,18.868408203125,-16.966552734375,-1.151123046875
0.1,19.909423828125,-14.804443359375,-4.274169921875
0.1005,20.590087890625,-12.402099609375,-7.397216796875
0.101,20.510009765625,-9.479248046875,-10.320068359375
0.1015,19.869384765625,-4.994873046875,-14.123779296875
0.102,18.708251953125,-1.231201171875,-16.806396484375
0.1025,16.786376953125,2.932861328125,-18.928466796875
0.103,14.343994140625,6.376220703125,-20.009521484375
0.1035,11.260986328125,9.499267578125,-20.169677734375
0.104,8.137939453125,12.662353515625,-20.249755859375
0.1045,3.173095703125,16.225830078125,-19.088623046875
0.105,-1.751708984375,18.868408203125,-16.806396484375
0.1055,-5.195068359375,19.989501953125,-14.884521484375
0.106,-8.358154296875,20.830322265625,-12.842529296875
0.1065,-11.561279296875,20.750244140625,-9.759521484375
0.107,-14.804443359375,19.989501953125,-5.915771484375
0.1075,-17.647216796875,18.708251953125,-1.951904296875
0.108,-19.929443359375,16.305908203125,2.692626953125
0.1085,-20.610107421875,13.903564453125,5.735595703125
0.109,-20.970458984375,11.020751953125,8.978759765625
0.1095,-20.890380859375,7.977783203125,12.021728515625
0.11,-20.009521484375,3.373291015625,15.745361328125
0.1105,-18.247802734375,-0.990966796875,18.307861328125
0.111,-16.165771484375,-4.674560546875,19.909423828125
0.1115,-13.843505859375,-7.917724609375,20.950439453125
0.112,-10.400146484375,-11.160888671875,20.790283203125
0.1125,-6.396240234375,-14.604248046875,20.349853515625
0.113,-1.631591796875,-17.767333984375,19.108642578125
0.1135,3.453369140625,-20.009521484375,16.466064453125
0.114,6.536376953125,-20.810302734375,14.424072265625
0.1145,9.859619140625,-21.490966796875,12.021728515625
0.115,12.982666015625,-21.290771484375,8.898681640625
0.1155,16.546142578125,-20.169677734375,4.414306640625
0.116,19.228759765625,-18.367919921875,0.010009765625
0.1165,21.070556640625,-16.005615234375,-4.194091796875
0.117,21.551025390625,-13.443115234375,-7.277099609375
0.1175,21.631103515625,-10.039794921875,-10.760498046875
0.118,21.270751953125,-6.396240234375,-14.083740234375
0.1185,20.269775390625,-2.072021484375,-17.406982421875
0.119,17.907470703125,2.652587890625,-19.769287109375
0.1195,15.505126953125,6.135986328125,-20.890380859375
0.12,12.862548828125,9.419189453125,-21.691162109375
0.1205,8.978759765625,12.902587890625,-21.330810546875
0.121,4.214111328125,16.385986328125,-20.289794921875
0.1215,-0.590576171875,19.268798828125,-18.608154296875
0.122,-5.275146484375,21.190673828125,-16.085693359375
0.1225,-8.318115234375,21.631103515625,-13.683349609375
0.123,-11.721435546875,21.911376953125,-10.840576171875
0.1235,-15.004638671875,21.430908203125,-7.317138671875
0.124,-18.247802734375,19.989501953125,-2.712646484375
0.1245,-20.610107421875,17.547119140625,2.092041015625
0.125,-21.931396484375,15.104736328125,5.775634765625
0.1255,-22.251708984375,12.302001953125,8.978759765625
0.126,-22.091552734375,8.578369140625,12.502197265625
0.1265,-21.210693359375,4.334228515625,15.945556640625
0.127,-19.929443359375,0.090087890625,18.908447265625
0.1275,-17.366943359375,-4.514404296875,20.990478515625
0.128,-14.684326171875,-7.757568359375,21.551025390625
0.1285,-11.881591796875,-11.040771484375,22.071533203125
0.129,-7.637451171875,-14.604248046875,21.510986328125
0.1295,-2.712646484375,-17.847412109375,20.029541015625
0.13,2.252197265625,-20.249755859375,17.787353515625
0.1305,6.376220703125,-21.811279296875,15.545166015625
0.131,9.459228515625,-22.091552734375,12.982666015625
0.1315,12.822509765625,-22.091552734375,9.899658203125
0.132,16.265869140625,-21.330810546875,5.815673828125
0.1325,19.268798828125,-19.689208984375,1.291259765625
0.133,21.350830078125,-17.046630859375,-3.353271484375
0.1335,22.151611328125,-14.564208984375,-6.716552734375
0.134,22.471923828125,-11.561279296875,-9.999755859375
0.1345,22.111572265625,-7.637451171875,-13.643310546875
0.135,20.990478515625,-3.353271484375,-16.846435546875
0.1355,19.228759765625,1.211181640625,-19.529052734375
0.136,16.706298828125,5.415283203125,-21.410888671875
0.1365,13.783447265625,8.578369140625,-21.651123046875
0.137,10.700439453125,11.821533203125,-21.971435546875
0.1375,5.975830078125,15.745361328125,-21.210693359375
0.138,1.091064453125,18.788330078125,-19.569091796875
0.1385,-3.793701171875,20.750244140625,-17.006591796875
0.139,-7.397216796875,21.911376953125,-14.804443359375
0.1395,-10.560302734375,22.151611328125,-12.121826171875
0.14,-13.883544921875,21.831298828125,-8.718505859375
0.1405,-17.206787109375,20.830322265625,-4.514404296875
0.141,-20.009521484375,18.788330078125,0.370361328125
0.1415,-21.811279296875,16.145751953125,4.654541015625
0.142,-22.171630859375,13.423095703125,7.737548828125
0.1425,-22.491943359375,10.340087890625,11.180908203125
0.143,-21.891357421875,5.935791015625,15.064697265625
0.1435,-20.690185546875,1.771728515625,18.067626953125
0.144,-18.447998046875,-2.832763671875,20.309814453125
0.1445,-16.125732421875,-6.756591796875,21.951416015625
0.145,-13.002685546875,-9.919677734375,22.031494140625
0.1455,-9.479248046875,-13.282958984375,21.991455078125
0.146,-4.634521484375,-16.886474609375,20.990478515625
0.1465,0.650634765625,-19.889404296875,18.988525390625
0.147,5.135009765625,-21.490966796875,16.385986328125
0.1475,8.418212890625,-22.251708984375,14.063720703125
0.148,11.861572265625,-22.572021484375,11.220947265625
0.1485,15.425048828125,-21.891357421875,7.177001953125
0.149,18.548095703125,-20.610107421875,2.972900390625
0.1495,21.110595703125,-18.247802734375,-1.991943359375
0.15,22.672119140625,-15.725341796875,-6.035888671875
0.1505,22.712158203125,-12.642333984375,-9.158935546875
0.151,22.872314453125,-9.399169921875,-12.682373046875
0.1515,21.991455078125,-4.594482421875,-16.606201171875
0.152,20.510009765625,-0.150146484375,-19.569091796875
0.1525,17.827392578125,4.254150390625,-21.290771484375
0.153,15.344970703125,7.937744140625,-22.572021484375
0.1535,11.901611328125,11.381103515625,-22.692138671875
0.154,7.417236328125,15.224853515625,-22.091552734375
0.1545,2.852783203125,18.387939453125,-20.890380859375
0.155,-2.712646484375,21.150634765625,-18.447998046875
0.1555,-6.916748046875,22.552001953125,-15.885498046875
0.156,-10.159912109375,22.752197265625,-13.082763671875
0.1565,-13.403076171875,23.032470703125,-10.320068359375
0.157,-17.326904296875,21.791259765625,-5.395263671875
0.1575,-20.129638671875,19.989501953125,-0.950927734375
0.158,-22.091552734375,17.427001953125,3.653564453125
0.1585,-23.292724609375,14.744384765625,7.457275390625
0.159,-23.132568359375,11.301025390625,10.660400390625
0.1595,-22.932373046875,7.537353515625,14.384033203125
0.16,-21.811279296875,3.012939453125,17.867431640625
0.1605,-19.889404296875,-1.911865234375,20.830322265625
0.161,-17.046630859375,-6.115966796875,22.151611328125
0.1615,-14.364013671875,-9.319091796875,22.792236328125
0.162,-11.200927734375,-12.642333984375,23.032470703125
0.1625,-5.715576171875,-16.806396484375,21.831298828125
0.163,-1.111083984375,-19.529052734375,20.229736328125
0.1635,3.973876953125,-21.731201171875,17.667236328125
0.164,7.897705078125,-22.932373046875,15.224853515625
0.1645,11.220947265625,-22.772216796875,12.021728515625
0.165,14.343994140625,-22.812255859375,9.138916015625
0.1655,18.187744140625,-21.571044921875,4.214111328125
0.166,20.990478515625,-19.248779296875,-0.790771484375
0.1665,22.431884765625,-16.726318359375,-4.754638671875
0.167,23.192626953125,-14.043701171875,-8.278076171875
0.1675,23.072509765625,-10.640380859375,-11.521240234375
0.168,22.471923828125,-6.115966796875,-15.565185546875
0.1685,21.230712890625,-2.072021484375,-18.447998046875
0.169,19.028564453125,2.812744140625,-21.010498046875
0.1695,16.265869140625,6.896728515625,-22.371826171875
0.17,12.942626953125,10.179931640625,-22.411865234375
0.1705,9.859619140625,13.423095703125,-22.692138671875
0.171,4.134033203125,17.587158203125,-21.290771484375
0.1715,-0.990966796875,20.309814453125,-19.208740234375
0.172,-5.235107421875,21.911376953125,-16.806396484375
0.1725,-8.918701171875,22.952392578125,-14.404052734375
0.173,-12.362060546875,22.752197265625,-10.960693359375
0.1735,-15.645263671875,22.191650390625,-7.397216796875
0.174,-18.928466796875,20.950439453125,-3.032958984375
0.1745,-21.611083984375,18.307861328125,2.292236328125
0.175,-22.692138671875,15.665283203125,5.975830078125
0.1755,-23.052490234375,12.702392578125,9.339111328125
0.176,-23.092529296875,9.499267578125,12.622314453125
0.1765,-22.131591796875,4.294189453125,16.906494140625
0.177,-20.530029296875,0.010009765625,19.549072265625
0.1775,-18.207763671875,-4.354248046875,21.631103515625
0.178,-15.605224609375,-8.197998046875,22.912353515625
0.1785,-11.841552734375,-11.601318359375,22.632080078125
0.179,-8.197998046875,-15.044677734375,22.511962890625
0.1795,-2.872802734375,-18.728271484375,21.110595703125
0.18,2.812744140625,-21.330810546875,18.427978515625
0.1805,6.576416015625,-22.451904296875,15.985595703125
0.181,10.179931640625,-23.212646484375,13.423095703125
