wavelength,x,y,z
0.0,18.628173828125,-19.208740234375,1.291259765625
0.0005,20.790283203125,-17.166748046875,-2.872802734375
0.001,21.911376953125,-15.044677734375,-6.115966796875
0.0015,21.791259765625,-11.561279296875,-9.439208984375
0.002,21.150634765625,-7.076904296875,-13.242919921875
0.0025,20.349853515625,-3.353271484375,-16.125732421875
0.003,18.908447265625,0.970947265625,-18.928466796875
0.0035,16.866455078125,4.974853515625,-20.970458984375
0.004,14.023681640625,8.017822265625,-21.290771484375
0.0045,10.420166015625,11.461181640625,-21.290771484375
0.005,5.375244140625,15.425048828125,-20.409912109375
0.0055,0.890869140625,18.347900390625,-19.088623046875
0.006,-3.553466796875,20.469970703125,-17.086669921875
0.0065,-7.076904296875,22.071533203125,-15.405029296875
0.007,-10.320068359375,21.871337890625,-12.121826171875
0.0075,-13.803466796875,21.310791015625,-8.197998046875
0.008,-17.046630859375,20.510009765625,-4.274169921875
0.0085,-19.889404296875,18.628173828125,0.410400390625
0.009,-21.731201171875,16.466064453125,4.414306640625
0.0095,-22.291748046875,13.783447265625,7.537353515625
0.01,-22.091552734375,10.019775390625,11.020751953125
0.0105,-21.210693359375,5.215087890625,15.024658203125
0.011,-20.249755859375,1.451416015625,17.787353515625
0.0115,-18.488037109375,-2.712646484375,20.149658203125
0.012,-16.526123046875,-6.556396484375,22.071533203125
0.0125,-12.922607421875,-9.679443359375,21.791259765625
0.013,-8.998779296875,-13.122802734375,21.430908203125
0.0135,-4.114013671875,-16.806396484375,20.469970703125
0.014,1.010986328125,-19.689208984375,18.588134765625
0.0145,4.974853515625,-21.410888671875,16.586181640625
0.015,8.258056640625,-22.451904296875,14.584228515625
0.0155,11.701416015625,-22.091552734375,10.860595703125
0.016,15.385009765625,-21.130615234375,6.376220703125
0.0165,18.227783203125,-20.249755859375,2.692626953125
0.017,20.790283203125,-18.207763671875,-1.911865234375
0.0175,22.311767578125,-16.005615234375,-5.595458984375
0.018,22.231689453125,-12.642333984375,-8.678466796875
0.0185,21.911376953125,-8.918701171875,-12.121826171875
0.019,20.990478515625,-4.234130859375,-15.845458984375
0.0195,19.669189453125,-0.150146484375,-18.568115234375
0.02,17.587158203125,3.853759765625,-20.449951171875
0.0205,15.505126953125,7.337158203125,-22.011474609375
0.021,11.501220703125,10.620361328125,-21.410888671875
0.0215,7.016845703125,14.263916015625,-20.810302734375
0.022,2.812744140625,17.427001953125,-19.969482421875
0.0225,-2.392333984375,20.109619140625,-17.807373046875
0.023,-6.035888671875,21.591064453125,-15.885498046875
0.0235,-9.118896484375,22.031494140625,-13.363037109375
0.024,-12.482177734375,21.711181640625,-9.919677734375
0.0245,-16.205810546875,20.550048828125,-5.155029296875
0.025,-18.848388671875,19.228759765625,-1.271240234375
0.0255,-20.890380859375,17.186767578125,2.812744140625
0.026,-22.171630859375,15.024658203125,6.256103515625
0.0265,-21.731201171875,11.260986328125,9.459228515625
0.027,-21.290771484375,7.297119140625,12.942626953125
0.0275,-20.530029296875,3.173095703125,16.345947265625
0.028,-19.008544921875,-1.151123046875,19.148681640625
0.0285,-16.886474609375,-4.834716796875,20.710205078125
0.029,-14.524169921875,-8.037841796875,21.671142578125
0.0295,-10.640380859375,-11.361083984375,21.270751953125
0.03,-5.595458984375,-15.244873046875,20.269775390625
0.0305,-1.431396484375,-18.047607421875,19.188720703125
0.031,3.213134765625,-20.369873046875,17.186767578125
0.0315,6.656494140625,-21.771240234375,15.344970703125
0.032,9.899658203125,-21.571044921875,12.061767578125
0.0325,13.142822265625,-21.290771484375,8.658447265625
0.033,16.746337890625,-20.369873046875,4.214111328125
0.0335,19.388916015625,-18.568115234375,-0.230224609375
0.034,21.070556640625,-16.606201171875,-3.713623046875
0.0345,21.951416015625,-14.163818359375,-6.996826171875
0.035,21.390869140625,-10.280029296875,-10.239990234375
0.0355,20.750244140625,-5.915771484375,-13.923583984375
0.036,19.989501953125,-2.272216796875,-16.806396484375
0.0365,18.267822265625,2.052001953125,-19.448974609375
0.037,16.105712890625,5.695556640625,-20.930419921875
0.0375,12.902587890625,8.898681640625,-21.130615234375
0.038,9.218994140625,12.221923828125,-20.930419921875
0.0385,3.973876953125,16.185791015625,-19.889404296875
0.039,-0.510498046875,18.828369140625,-18.247802734375
0.0395,-4.434326171875,20.670166015625,-16.486083984375
0.04,-7.717529296875,21.871337890625,-14.604248046875
0.0405,-11.160888671875,21.270751953125,-10.760498046875
0.041,-14.404052734375,20.710205078125,-7.076904296875
0.0415,-17.487060546875,19.829345703125,-3.153076171875
0.042,-20.049560546875,17.667236328125,1.571533203125
0.0425,-21.290771484375,15.625244140625,4.814697265625
0.043,-21.691162109375,12.662353515625,8.057861328125
0.0435,-21.170654296875,8.858642578125,11.381103515625
0.044,-20.369873046875,4.294189453125,15.064697265625
0.0445,-19.288818359375,0.530517578125,17.787353515625
0.045,-17.567138671875,-3.513427734375,20.029541015625
0.0455,-15.405029296875,-6.876708984375,21.390869140625
0.046,-11.561279296875,-10.119873046875,20.910400390625
0.0465,-7.717529296875,-13.523193359375,20.630126953125
0.047,-2.832763671875,-17.086669921875,19.549072265625
0.0475,2.052001953125,-19.529052734375,17.427001953125
0.048,5.415283203125,-20.970458984375,15.745361328125
0.0485,8.618408203125,-21.771240234375,13.463134765625
0.049,12.021728515625,-21.130615234375,9.539306640625
0.0495,15.385009765625,-20.249755859375,5.415283203125
0.05,18.187744140625,-19.088623046875,1.651611328125
0.0505,20.469970703125,-17.006591796875,-2.712646484375
0.051,21.310791015625,-14.884521484375,-5.675537109375
0.0515,21.150634765625,-11.401123046875,-8.958740234375
0.052,20.670166015625,-7.717529296875,-12.121826171875
0.0525,19.909423828125,-3.473388671875,-15.605224609375
0.053,18.307861328125,0.690673828125,-18.087646484375
0.0535,16.546142578125,4.214111328125,-19.889404296875
0.054,14.223876953125,7.537353515625,-20.970458984375
0.0545,10.019775390625,10.820556640625,-20.209716796875
0.055,5.815673828125,14.263916015625,-19.689208984375
0.0555,1.571533203125,17.386962890625,-18.728271484375
0.056,-3.193115234375,19.709228515625,-16.606201171875
0.0565,-6.115966796875,20.670166015625,-14.924560546875
0.057,-9.359130859375,20.950439453125,-12.201904296875
0.0575,-12.522216796875,20.469970703125,-8.598388671875
0.058,-15.885498046875,19.509033203125,-4.394287109375
0.0585,-18.367919921875,17.947509765625,-0.430419921875
0.059,-20.209716796875,16.065673828125,3.293212890625
0.0595,-20.890380859375,13.743408203125,6.296142578125
0.06,-20.409912109375,9.939697265625,9.539306640625
0.0605,-19.929443359375,6.135986328125,12.782470703125
0.061,-19.288818359375,2.292236328125,15.985595703125
0.0615,-17.647216796875,-1.791748046875,18.427978515625
0.062,-15.765380859375,-4.994873046875,19.789306640625
0.0625,-13.202880859375,-8.157958984375,20.469970703125
0.063,-9.118896484375,-11.481201171875,19.909423828125
0.0635,-4.594482421875,-14.924560546875,19.068603515625
0.064,-0.350341796875,-17.647216796875,17.787353515625
0.0645,3.773681640625,-19.809326171875,16.065673828125
0.065,6.656494140625,-20.610107421875,14.223876953125
0.0655,9.979736328125,-20.489990234375,10.860595703125
0.066,13.182861328125,-20.009521484375,7.377197265625
0.0665,16.345947265625,-19.128662109375,3.413330078125
0.067,18.788330078125,-17.326904296875,-0.870849609375
0.0675,20.229736328125,-15.525146484375,-4.033935546875
0.068,20.710205078125,-12.842529296875,-7.116943359375
0.0685,20.189697265625,-8.958740234375,-10.400146484375
0.069,19.549072265625,-5.114990234375,-13.643310546875
0.0695,18.788330078125,-1.351318359375,-16.606201171875
0.07,17.106689453125,2.732666015625,-18.968505859375
0.0705,14.944580078125,5.775634765625,-19.929443359375
0.071,11.701416015625,9.098876953125,-20.129638671875
0.0715,7.617431640625,12.662353515625,-19.729248046875
0.072,3.052978515625,16.025634765625,-18.808349609375
0.0725,-1.431396484375,18.468017578125,-17.086669921875
0.073,-4.994873046875,20.309814453125,-15.565185546875
0.0735,-7.997802734375,20.870361328125,-13.363037109375
0.074,-11.441162109375,20.469970703125,-9.599365234375
0.0745,-14.644287109375,19.869384765625,-5.955810546875
0.075,-17.647216796875,18.748291015625,-1.951904296875
0.0755,-19.889404296875,16.666259765625,2.412353515625
0.076,-20.850341796875,14.624267578125,5.375244140625
0.0765,-21.050537109375,11.381103515625,8.698486328125
0.077,-20.489990234375,7.297119140625,12.221923828125
0.0775,-19.729248046875,3.333251953125,15.425048828125
0.078,-18.447998046875,-0.630615234375,18.067626953125
0.0785,-16.646240234375,-4.514404296875,20.229736328125
0.079,-14.123779296875,-7.557373046875,20.790283203125
0.0795,-10.280029296875,-10.880615234375,20.469970703125
0.08,-6.075927734375,-14.404052734375,19.949462890625
0.0805,-1.271240234375,-17.687255859375,18.628173828125
0.081,3.173095703125,-19.769287109375,16.626220703125
0.0815,6.336181640625,-21.130615234375,14.984619140625
0.082,9.539306640625,-21.290771484375,12.181884765625
0.0825,13.022705078125,-20.570068359375,8.137939453125
0.083,16.065673828125,-19.849365234375,4.414306640625
0.0835,18.908447265625,-18.287841796875,0.130126953125
0.084,20.910400390625,-16.245849609375,-3.953857421875
0.0845,21.270751953125,-13.763427734375,-6.756591796875
0.085,21.110595703125,-10.119873046875,-10.199951171875
0.0855,20.429931640625,-5.915771484375,-13.603271484375
0.086,19.549072265625,-2.072021484375,-16.646240234375
0.0865,17.707275390625,1.971923828125,-18.768310546875
0.087,15.945556640625,5.495361328125,-20.570068359375
0.0875,12.822509765625,8.658447265625,-20.770263671875
0.088,8.578369140625,12.101806640625,-20.129638671875
0.0885,4.494384765625,15.304931640625,-19.489013671875
0.089,-0.310302734375,18.267822265625,-17.967529296875
0.0895,-4.474365234375,20.189697265625,-15.965576171875
0.09,-7.237060546875,20.950439453125,-14.083740234375
0.0905,-10.520263671875,20.950439453125,-11.000732421875
0.091,-13.963623046875,20.109619140625,-6.796630859375
0.0915,-16.726318359375,19.148681640625,-3.193115234375
0.092,-19.088623046875,17.306884765625,0.970947265625
0.0925,-20.810302734375,15.385009765625,4.534423828125
0.093,-20.810302734375,12.462158203125,7.417236328125
0.0935,-20.449951171875,8.658447265625,10.860595703125
0.094,-19.769287109375,4.734619140625,14.063720703125
0.0945,-18.848388671875,0.810791015625,17.026611328125
0.095,-16.926513671875,-3.113037109375,19.068603515625
0.0955,-15.084716796875,-6.115966796875,20.229736328125
0.096,-11.921630859375,-9.239013671875,20.349853515625
0.0965,-7.437255859375,-12.802490234375,19.589111328125
0.097,-3.473388671875,-15.765380859375,18.788330078125
0.0975,1.131103515625,-18.407958984375,17.106689453125
0.098,4.854736328125,-20.169677734375,15.425048828125
0.0985,7.617431640625,-20.449951171875,13.142822265625
0.099,10.860595703125,-20.329833984375,9.939697265625
0.0995,14.263916015625,-19.609130859375,5.895751953125
0.1,17.066650390625,-18.528076171875,2.132080078125
0.1005,19.188720703125,-16.686279296875,-1.791748046875
0.101,20.469970703125,-14.804443359375,-4.914794921875
0.1015,20.389892578125,-11.681396484375,-7.957763671875
0.102,19.949462890625,-7.677490234375,-11.481201171875
0.1025,19.348876953125,-4.114013671875,-14.404052734375
0.103,18.187744140625,0.010009765625,-17.286865234375
0.1035,16.345947265625,3.813720703125,-19.248779296875
0.104,13.943603515625,6.696533203125,-19.889404296875
0.1045,10.700439453125,9.899658203125,-20.009521484375
0.105,5.935791015625,13.703369140625,-19.248779296875
0.1055,1.851806640625,16.546142578125,-18.247802734375
0.106,-2.392333984375,18.788330078125,-16.526123046875
0.1065,-5.795654296875,20.469970703125,-15.004638671875
0.107,-8.798583984375,20.469970703125,-12.161865234375
0.1075,-12.041748046875,20.149658203125,-8.678466796875
0.108,-15.324951171875,19.509033203125,-4.874755859375
0.1085,-18.087646484375,17.947509765625,-0.670654296875
0.109,-19.929443359375,15.985595703125,3.133056640625
0.1095,-20.770263671875,13.743408203125,6.095947265625
0.11,-20.570068359375,10.260009765625,9.339111328125
0.1105,-19.929443359375,5.815673828125,13.142822265625
0.111,-19.208740234375,2.372314453125,15.865478515625
0.1115,-17.767333984375,-1.631591796875,18.387939453125
0.112,-15.965576171875,-5.275146484375,20.309814453125
0.1125,-12.842529296875,-8.238037109375,20.229736328125
0.113,-9.319091796875,-11.481201171875,20.109619140625
0.1135,-4.634521484375,-15.204833984375,19.268798828125
0.114,0.050048828125,-17.927490234375,17.747314453125
0.1145,3.853759765625,-19.689208984375,15.985595703125
0.115,6.936767578125,-20.970458984375,14.263916015625
0.1155,10.179931640625,-20.650146484375,10.940673828125
0.116,13.583251953125,-20.009521484375,6.976806640625
0.1165,16.506103515625,-19.328857421875,3.453369140625
0.117,19.108642578125,-17.487060546875,-0.950927734375
0.1175,20.670166015625,-15.525146484375,-4.434326171875
0.118,20.790283203125,-12.682373046875,-7.357177734375
0.1185,20.590087890625,-9.239013671875,-10.560302734375
0.119,19.869384765625,-4.754638671875,-14.243896484375
0.1195,18.828369140625,-1.031005859375,-16.926513671875
0.12,17.026611328125,2.772705078125,-18.928466796875
0.1205,15.224853515625,6.095947265625,-20.610107421875
0.121,11.541259765625,9.259033203125,-20.129638671875
0.1215,7.497314453125,12.662353515625,-19.769287109375
0.122,3.293212890625,16.025634765625,-19.088623046875
0.1225,-1.591552734375,18.668212890625,-17.126708984375
0.123,-5.034912109375,20.229736328125,-15.405029296875
0.1235,-8.037841796875,20.830322265625,-13.242919921875
0.124,-11.200927734375,20.590087890625,-9.959716796875
0.1245,-14.764404296875,19.629150390625,-5.555419921875
0.125,-17.326904296875,18.548095703125,-1.991943359375
0.1255,-19.529052734375,16.666259765625,2.011962890625
0.126,-20.850341796875,14.704345703125,5.255126953125
0.1265,-20.489990234375,11.260986328125,8.298095703125
0.127,-20.209716796875,7.697509765625,11.581298828125
0.1275,-19.569091796875,3.613525390625,14.984619140625
0.128,-18.247802734375,-0.470458984375,17.627197265625
0.1285,-16.325927734375,-3.993896484375,19.268798828125
0.129,-14.283935546875,-7.076904296875,20.469970703125
0.1295,-10.600341796875,-10.239990234375,20.029541015625
0.13,-5.955810546875,-13.843505859375,19.268798828125
0.1305,-2.031982421875,-16.686279296875,18.387939453125
0.131,2.412353515625,-19.048583984375,16.546142578125
0.1315,5.735595703125,-20.489990234375,14.904541015625
0.132,8.738525390625,-20.489990234375,12.101806640625
0.1325,11.821533203125,-20.329833984375,8.978759765625
0.133,15.385009765625,-19.489013671875,4.654541015625
0.1335,17.987548828125,-17.967529296875,0.650634765625
0.134,19.709228515625,-16.165771484375,-2.832763671875
0.1345,20.750244140625,-14.083740234375,-5.915771484375
0.135,20.229736328125,-10.400146484375,-8.998779296875
0.1355,19.789306640625,-6.396240234375,-12.522216796875
0.136,19.228759765625,-2.872802734375,-15.525146484375
0.1365,17.747314453125,1.291259765625,-18.167724609375
0.137,15.745361328125,4.774658203125,-19.729248046875
0.1375,12.982666015625,7.817626953125,-20.169677734375
0.138,9.459228515625,11.100830078125,-20.009521484375
0.1385,4.494384765625,14.984619140625,-19.088623046875
0.139,0.290283203125,17.627197265625,-17.807373046875
0.1395,-3.673583984375,19.669189453125,-16.165771484375
0.14,-6.876708984375,20.870361328125,-14.404052734375
0.1405,-10.159912109375,20.469970703125,-10.840576171875
0.141,-13.322998046875,20.109619140625,-7.437255859375
0.1415,-16.526123046875,19.268798828125,-3.553466796875
0.142,-19.088623046875,17.306884765625,1.010986328125
0.1425,-20.409912109375,15.385009765625,4.174072265625
0.143,-20.970458984375,12.702392578125,7.377197265625
0.1435,-20.489990234375,8.978759765625,10.540283203125
0.144,-19.809326171875,4.614501953125,14.223876953125
0.1445,-18.888427734375,0.970947265625,16.946533203125
0.145,-17.286865234375,-3.032958984375,19.268798828125
0.1455,-15.164794921875,-6.356201171875,20.550048828125
0.146,-11.561279296875,-9.519287109375,20.309814453125
0.1465,-7.957763671875,-12.802490234375,20.149658203125
0.147,-3.072998046875,-16.406005859375,19.068603515625
0.1475,1.691650390625,-18.888427734375,17.106689453125
0.148,4.974853515625,-20.369873046875,15.505126953125
0.1485,8.177978515625,-21.210693359375,13.423095703125
0.149,11.541259765625,-20.570068359375,9.539306640625
0.1495,14.784423828125,-19.889404296875,5.655517578125
0.15,17.667236328125,-18.848388671875,1.891845703125
0.1505,19.949462890625,-16.806396484375,-2.472412109375
0.151,20.870361328125,-14.764404296875,-5.395263671875
0.1515,20.830322265625,-11.401123046875,-8.678466796875
0.152,20.349853515625,-7.797607421875,-11.721435546875
0.1525,19.629150390625,-3.593505859375,-15.204833984375
0.153,18.147705078125,0.370361328125,-17.767333984375
0.1535,16.426025390625,3.933837890625,-19.569091796875
0.154,14.143798828125,7.217041015625,-20.650146484375
0.1545,10.059814453125,10.500244140625,-19.929443359375
0.155,6.015869140625,13.903564453125,-19.529052734375
0.1555,1.651611328125,17.106689453125,-18.568115234375
0.156,-3.072998046875,19.348876953125,-16.406005859375
0.1565,-5.955810546875,20.469970703125,-14.804443359375
0.157,-9.118896484375,20.870361328125,-12.241943359375
0.1575,-12.322021484375,20.309814453125,-8.638427734375
0.158,-15.565185546875,19.348876953125,-4.514404296875
0.1585,-18.127685546875,17.907470703125,-0.590576171875
0.159,-20.049560546875,15.985595703125,3.253173828125
0.1595,-20.730224609375,13.743408203125,6.135986328125
0.16,-20.329833984375,9.939697265625,9.459228515625
0.1605,-19.849365234375,6.256103515625,12.622314453125
0.161,-19.208740234375,2.372314453125,15.865478515625
0.1615,-17.527099609375,-1.791748046875,18.227783203125
0.162,-15.725341796875,-4.874755859375,19.709228515625
0.1625,-13.282958984375,-8.037841796875,20.469970703125
0.163,-9.158935546875,-11.281005859375,19.789306640625
0.1635,-4.794677734375,-14.684326171875,19.028564453125
0.164,-0.510498046875,-17.527099609375,17.787353515625
0.1645,3.693603515625,-19.609130859375,15.985595703125
0.165,6.536376953125,-20.449951171875,14.143798828125
0.1655,9.859619140625,-20.409912109375,10.980712890625
0.166,13.022705078125,-19.929443359375,7.457275390625
0.1665,16.185791015625,-19.048583984375,3.493408203125
0.167,18.628173828125,-17.246826171875,-0.750732421875
0.1675,20.189697265625,-15.445068359375,-3.993896484375
0.168,20.630126953125,-12.842529296875,-6.996826171875
0.1685,20.069580078125,-8.998779296875,-10.320068359375
0.169,19.509033203125,-5.235107421875,-13.483154296875
0.1695,18.748291015625,-1.551513671875,-16.486083984375
0.17,16.946533203125,2.652587890625,-18.768310546875
0.1705,14.904541015625,5.735595703125,-19.809326171875
0.171,11.821533203125,8.978759765625,-20.129638671875
0.1715,7.697509765625,12.462158203125,-19.689208984375
0.172,3.213134765625,15.745361328125,-18.728271484375
0.1725,-1.231201171875,18.267822265625,-17.046630859375
0.173,-4.874755859375,20.149658203125,-15.525146484375
0.1735,-7.797607421875,20.710205078125,-13.322998046875
0.174,-11.240966796875,20.349853515625,-9.679443359375
0.1745,-14.404052734375,19.789306640625,-6.075927734375
0.175,-17.366943359375,18.668212890625,-2.072021484375
0.1755,-19.609130859375,16.626220703125,2.212158203125
0.176,-20.690185546875,14.664306640625,5.175048828125
0.1765,-20.850341796875,11.501220703125,8.458251953125
0.177,-20.249755859375,7.377197265625,11.981689453125
0.1775,-19.529052734375,3.493408203125,15.064697265625
0.178,-18.367919921875,-0.430419921875,17.787353515625
0.1785,-16.606201171875,-4.314208984375,19.949462890625
0.179,-14.123779296875,-7.237060546875,20.510009765625
0.1795,-10.520263671875,-10.560302734375,20.349853515625
0.18,-6.276123046875,-14.083740234375,19.829345703125
0.1805,-1.631591796875,-17.246826171875,18.588134765625
0.181,2.772705078125,-19.368896484375,16.586181640625
