wavelength,x,y,z
0.0,-26.575927734375,10.099853515625,15.825439453125
0.0005,-25.975341796875,6.736572265625,18.588134765625
0.001,-23.492919921875,0.850830078125,21.911376953125
0.0015,-21.450927734375,-3.673583984375,24.353759765625
0.002,-18.968505859375,-8.518310546875,26.635986328125
0.0025,-13.803466796875,-14.564208984375,27.436767578125
0.003,-8.598388671875,-18.247802734375,25.795166015625
0.0035,-4.754638671875,-21.290771484375,25.114501953125
0.004,1.531494140625,-23.973388671875,21.631103515625
0.0045,6.256103515625,-26.575927734375,19.669189453125
0.005,11.260986328125,-27.216552734375,15.425048828125
0.0055,16.706298828125,-27.496826171875,10.460205078125
0.006,19.549072265625,-26.135498046875,6.416259765625
0.0065,22.992431640625,-24.373779296875,1.291259765625
0.007,25.074462890625,-21.531005859375,-3.553466796875
0.0075,27.356689453125,-19.248779296875,-8.157958984375
0.008,26.916259765625,-13.803466796875,-13.242919921875
0.0085,26.155517578125,-8.998779296875,-17.366943359375
0.009,25.314697265625,-5.595458984375,-19.969482421875
0.0095,22.511962890625,0.330322265625,-23.052490234375
0.01,20.469970703125,4.934814453125,-25.374755859375
0.0105,17.106689453125,9.939697265625,-26.936279296875
0.011,11.901611328125,15.465087890625,-27.216552734375
0.0115,7.136962890625,18.748291015625,-25.655029296875
0.012,2.692626953125,21.551025390625,-24.053466796875
0.0125,-3.032958984375,23.913330078125,-20.850341796875
0.013,-7.517333984375,26.475830078125,-19.088623046875
0.0135,-12.722412109375,26.195556640625,-13.803466796875
0.014,-17.166748046875,26.195556640625,-9.559326171875
0.0145,-19.849365234375,24.994384765625,-5.795654296875
0.015,-23.012451171875,22.752197265625,-0.470458984375
0.0155,-24.974365234375,20.069580078125,4.174072265625
0.016,-26.736083984375,17.346923828125,8.658447265625
0.0165,-26.215576171875,12.021728515625,13.583251953125
0.017,-25.334716796875,7.497314453125,17.146728515625
0.0175,-24.293701171875,4.053955078125,19.709228515625
0.018,-21.571044921875,-1.711669921875,22.592041015625
0.0185,-19.889404296875,-6.115966796875,25.274658203125
0.019,-15.405029296875,-11.361083984375,25.875244140625
0.0195,-11.000732421875,-16.005615234375,26.075439453125
0.02,-6.556396484375,-19.088623046875,24.714111328125
0.0205,-1.591552734375,-21.851318359375,22.552001953125
0.021,3.653564453125,-24.093505859375,19.709228515625
0.0215,8.538330078125,-26.776123046875,17.627197265625
0.022,13.743408203125,-26.095458984375,11.901611328125
0.0225,17.507080078125,-25.935302734375,8.218017578125
0.023,20.109619140625,-24.654052734375,4.454345703125
0.0235,23.352783203125,-22.451904296875,-0.990966796875
0.024,25.434814453125,-19.849365234375,-5.635498046875
0.0245,26.275634765625,-15.925537109375,-10.560302734375
0.025,25.995361328125,-11.240966796875,-15.004638671875
0.0255,24.914306640625,-6.916748046875,-18.447998046875
0.026,23.432861328125,-2.872802734375,-20.770263671875
0.0265,20.990478515625,2.812744140625,-23.853271484375
0.027,18.948486328125,7.817626953125,-26.696044921875
0.0275,13.142822265625,13.262939453125,-26.335693359375
0.028,9.459228515625,17.146728515625,-26.415771484375
0.0285,4.694580078125,20.149658203125,-24.654052734375
0.029,-0.790771484375,23.072509765625,-22.211669921875
0.0295,-5.715576171875,25.114501953125,-19.489013671875
0.03,-11.441162109375,27.276611328125,-16.045654296875
0.0305,-15.845458984375,26.115478515625,-10.760498046875
0.031,-19.408935546875,25.715087890625,-6.916748046875
0.0315,-21.771240234375,23.673095703125,-2.592529296875
0.032,-24.974365234375,21.350830078125,2.932861328125
0.0325,-26.856201171875,18.387939453125,7.697509765625
0.033,-26.896240234375,13.182861328125,12.942626953125
0.0335,-26.415771484375,9.299072265625,16.466064453125
0.034,-24.974365234375,4.494384765625,19.829345703125
0.0345,-22.812255859375,0.050048828125,22.111572265625
0.035,-20.449951171875,-5.235107421875,24.954345703125
0.0355,-17.366943359375,-10.920654296875,27.516845703125
0.036,-11.361083984375,-15.725341796875,26.115478515625
0.0365,-7.997802734375,-19.088623046875,26.115478515625
0.037,-2.792724609375,-21.651123046875,23.472900390625
0.0375,2.812744140625,-24.614013671875,20.990478515625
0.038,7.417236328125,-26.295654296875,18.227783203125
0.0385,13.703369140625,-27.616943359375,13.503173828125
0.039,17.146728515625,-26.415771484375,9.018798828125
0.0395,20.670166015625,-25.695068359375,4.934814453125
0.04,22.752197265625,-23.212646484375,0.370361328125
0.0405,25.594970703125,-20.930419921875,-4.754638671875
0.041,26.996337890625,-17.447021484375,-9.679443359375
0.0415,26.195556640625,-11.721435546875,-14.604248046875
0.042,25.995361328125,-8.518310546875,-17.687255859375
0.0425,23.993408203125,-3.473388671875,-20.650146484375
0.043,21.831298828125,1.171142578125,-23.092529296875
0.0435,19.509033203125,5.975830078125,-25.494873046875
0.044,15.425048828125,12.181884765625,-27.536865234375
0.0445,9.899658203125,16.185791015625,-25.895263671875
0.045,6.536376953125,19.509033203125,-25.815185546875
0.0455,1.131103515625,21.631103515625,-22.572021484375
0.046,-4.114013671875,24.593994140625,-20.489990234375
0.0465,-8.758544921875,26.075439453125,-17.487060546875
0.047,-14.604248046875,26.555908203125,-12.281982421875
0.0475,-17.527099609375,25.594970703125,-8.638427734375
0.048,-20.930419921875,24.313720703125,-4.033935546875
0.0485,-23.052490234375,21.751220703125,0.570556640625
0.049,-25.534912109375,19.589111328125,5.175048828125
0.0495,-26.656005859375,15.224853515625,10.380126953125
0.05,-25.695068359375,10.099853515625,14.984619140625
0.0505,-25.534912109375,7.177001953125,17.747314453125
0.051,-22.972412109375,1.771728515625,20.550048828125
0.0515,-21.210693359375,-2.792724609375,23.312744140625
0.052,-18.688232421875,-7.557373046875,25.474853515625
0.0525,-13.923583984375,-13.723388671875,26.756103515625
0.053,-9.118896484375,-17.046630859375,25.274658203125
0.0535,-5.315185546875,-20.289794921875,24.634033203125
0.054,0.290283203125,-22.491943359375,21.390869140625
0.0545,5.094970703125,-25.374755859375,19.589111328125
0.055,10.340087890625,-26.415771484375,15.585205078125
0.0555,15.665283203125,-26.615966796875,10.620361328125
0.056,18.427978515625,-25.895263671875,7.297119140625
0.0565,21.911376953125,-24.093505859375,2.052001953125
0.057,24.073486328125,-21.611083984375,-2.632568359375
0.0575,26.355712890625,-19.208740234375,-7.076904296875
0.058,26.716064453125,-14.163818359375,-12.762451171875
0.0585,25.675048828125,-9.239013671875,-16.646240234375
0.059,25.314697265625,-6.075927734375,-19.408935546875
0.0595,22.431884765625,-0.270263671875,-22.291748046875
0.06,20.670166015625,4.494384765625,-25.174560546875
0.0605,17.146728515625,9.619384765625,-26.656005859375
0.061,12.141845703125,15.425048828125,-27.376708984375
0.0615,7.537353515625,18.548095703125,-25.895263671875
0.062,2.812744140625,21.791259765625,-24.373779296875
0.0625,-3.072998046875,24.033447265625,-21.010498046875
0.063,-7.677490234375,26.756103515625,-19.208740234375
0.0635,-13.122802734375,26.756103515625,-13.923583984375
0.064,-17.647216796875,26.595947265625,-9.479248046875
0.0645,-20.409912109375,25.594970703125,-5.795654296875
0.065,-23.733154296875,23.072509765625,0.010009765625
0.0655,-25.895263671875,20.029541015625,4.854736328125
0.066,-27.416748046875,17.306884765625,9.419189453125
0.0665,-27.296630859375,11.981689453125,14.704345703125
0.067,-26.055419921875,7.217041015625,18.187744140625
0.0675,-24.974365234375,3.533447265625,20.830322265625
0.068,-21.891357421875,-2.512451171875,23.673095703125
0.0685,-20.009521484375,-7.197021484375,26.435791015625
0.069,-15.204833984375,-12.522216796875,26.836181640625
0.0695,-10.640380859375,-17.366943359375,27.036376953125
0.07,-6.156005859375,-20.289794921875,25.514892578125
0.0705,-0.790771484375,-23.212646484375,23.112548828125
0.071,4.774658203125,-25.294677734375,19.789306640625
0.0715,9.739501953125,-27.857177734375,17.587158203125
0.072,15.104736328125,-27.176513671875,11.661376953125
0.0725,18.908447265625,-26.776123046875,7.617431640625
0.073,21.430908203125,-25.374755859375,3.853759765625
0.0735,24.634033203125,-22.812255859375,-1.911865234375
0.074,26.515869140625,-19.849365234375,-6.716552734375
0.0745,27.076416015625,-15.645263671875,-11.521240234375
0.075,26.956298828125,-10.960693359375,-16.125732421875
0.0755,25.474853515625,-6.356201171875,-19.248779296875
0.076,23.913330078125,-2.352294921875,-21.691162109375
0.0765,20.990478515625,3.373291015625,-24.373779296875
0.077,18.948486328125,8.418212890625,-27.296630859375
0.0775,13.102783203125,13.823486328125,-26.736083984375
0.078,9.138916015625,17.867431640625,-26.816162109375
0.0785,4.734619140625,20.510009765625,-25.014404296875
0.079,-0.950927734375,23.432861328125,-22.411865234375
0.0795,-5.915771484375,25.314697265625,-19.408935546875
0.08,-11.401123046875,27.236572265625,-16.005615234375
0.0805,-15.965576171875,26.555908203125,-10.880615234375
0.081,-19.408935546875,25.635009765625,-6.876708984375
0.0815,-21.691162109375,23.833251953125,-2.912841796875
0.082,-24.734130859375,21.350830078125,2.732666015625
0.0825,-26.776123046875,18.548095703125,7.497314453125
0.083,-26.455810546875,13.302978515625,12.502197265625
0.0835,-26.615966796875,9.579345703125,16.385986328125
0.084,-24.974365234375,4.974853515625,19.348876953125
0.0845,-23.012451171875,0.450439453125,21.911376953125
0.085,-20.409912109375,-4.794677734375,24.473876953125
0.0855,-17.647216796875,-10.440185546875,27.236572265625
0.086,-11.721435546875,-15.244873046875,26.075439453125
0.0865,-8.197998046875,-18.928466796875,26.115478515625
0.087,-3.553466796875,-21.170654296875,23.753173828125
0.0875,2.292236328125,-24.373779296875,21.270751953125
0.088,7.136962890625,-26.175537109375,18.427978515625
0.0885,13.222900390625,-27.496826171875,13.583251953125
0.089,16.946533203125,-26.856201171875,9.619384765625
0.0895,20.510009765625,-25.895263671875,5.215087890625
0.09,22.712158203125,-23.653076171875,0.890869140625
0.0905,25.594970703125,-21.130615234375,-4.554443359375
0.091,27.396728515625,-17.727294921875,-9.759521484375
0.0915,26.475830078125,-11.841552734375,-14.764404296875
0.092,26.595947265625,-8.718505859375,-18.047607421875
0.0925,24.473876953125,-3.713623046875,-20.890380859375
0.093,22.391845703125,1.251220703125,-23.693115234375
0.0935,19.669189453125,6.376220703125,-25.975341796875
0.094,15.545166015625,12.782470703125,-28.177490234375
0.0945,9.939697265625,16.866455078125,-26.575927734375
0.095,6.336181640625,20.349853515625,-26.415771484375
0.0955,0.890869140625,22.471923828125,-23.212646484375
0.096,-4.674560546875,25.554931640625,-20.890380859375
0.0965,-9.719482421875,27.156494140625,-17.447021484375
0.097,-15.685302734375,27.276611328125,-12.081787109375
0.0975,-18.608154296875,26.515869140625,-8.518310546875
0.098,-22.171630859375,25.034423828125,-3.553466796875
0.0985,-24.333740234375,22.351806640625,1.291259765625
0.099,-26.696044921875,19.829345703125,6.216064453125
0.0995,-27.937255859375,15.385009765625,11.821533203125
0.1,-26.615966796875,9.739501953125,16.225830078125
0.1005,-26.535888671875,6.776611328125,19.148681640625
0.101,-23.693115234375,1.251220703125,21.791259765625
0.1015,-21.731201171875,-3.673583984375,24.634033203125
0.102,-18.608154296875,-8.678466796875,26.475830078125
0.1025,-13.723388671875,-14.924560546875,27.677001953125
0.103,-8.838623046875,-18.207763671875,26.075439453125
0.1035,-4.714599609375,-21.531005859375,25.314697265625
0.104,0.850830078125,-23.452880859375,21.791259765625
0.1045,5.815673828125,-26.335693359375,19.589111328125
0.105,11.381103515625,-27.416748046875,15.425048828125
0.1055,16.626220703125,-27.136474609375,10.179931640625
0.106,19.268798828125,-26.575927734375,7.096923828125
0.1065,22.592041015625,-24.333740234375,1.651611328125
0.107,24.634033203125,-21.811279296875,-2.912841796875
0.1075,26.595947265625,-19.168701171875,-7.517333984375
0.108,27.276611328125,-14.083740234375,-13.322998046875
0.1085,25.875244140625,-9.038818359375,-16.926513671875
0.109,25.594970703125,-5.915771484375,-19.849365234375
0.1095,22.552001953125,-0.470458984375,-22.211669921875
0.11,20.790283203125,4.294189453125,-25.094482421875
0.1105,17.106689453125,9.539306640625,-26.575927734375
0.111,12.021728515625,15.344970703125,-27.176513671875
0.1115,7.937744140625,18.307861328125,-26.015380859375
0.112,3.052978515625,21.430908203125,-24.293701171875
0.1125,-2.272216796875,23.512939453125,-21.010498046875
0.113,-6.876708984375,26.035400390625,-19.288818359375
0.1135,-12.682373046875,26.515869140625,-14.163818359375
0.114,-17.006591796875,25.995361328125,-9.479248046875
0.1145,-19.769287109375,25.635009765625,-6.476318359375
0.115,-22.892333984375,22.992431640625,-0.790771484375
0.1155,-25.094482421875,20.469970703125,3.973876953125
0.116,-26.535888671875,17.427001953125,8.378173828125
0.1165,-26.936279296875,12.221923828125,14.063720703125
0.117,-25.614990234375,7.737548828125,17.266845703125
0.1175,-24.894287109375,4.093994140625,20.189697265625
0.118,-21.891357421875,-1.551513671875,22.752197265625
0.1185,-20.329833984375,-6.236083984375,25.755126953125
0.119,-15.485107421875,-11.721435546875,26.315673828125
0.1195,-10.760498046875,-16.726318359375,26.595947265625
0.12,-6.996826171875,-19.569091796875,25.594970703125
0.1205,-1.231201171875,-22.732177734375,23.072509765625
0.121,4.093994140625,-24.854248046875,19.989501953125
0.1215,8.978759765625,-27.336669921875,17.747314453125
0.122,14.664306640625,-27.176513671875,12.141845703125
0.1225,18.427978515625,-26.335693359375,7.737548828125
0.123,21.150634765625,-25.614990234375,4.374267578125
0.1235,24.273681640625,-22.892333984375,-1.471435546875
0.124,26.435791015625,-20.129638671875,-6.396240234375
0.1245,26.876220703125,-15.685302734375,-11.240966796875
0.125,27.156494140625,-11.120849609375,-16.165771484375
0.1255,25.594970703125,-6.556396484375,-19.168701171875
0.126,24.153564453125,-2.312255859375,-21.971435546875
0.1265,21.110595703125,3.413330078125,-24.493896484375
0.127,19.148681640625,8.498291015625,-27.536865234375
0.1275,13.102783203125,14.063720703125,-26.976318359375
0.128,8.898681640625,18.267822265625,-26.936279296875
0.1285,4.734619140625,20.750244140625,-25.494873046875
0.129,-1.271240234375,23.953369140625,-22.652099609375
0.1295,-6.276123046875,25.715087890625,-19.529052734375
0.13,-11.801513671875,27.556884765625,-16.005615234375
0.1305,-16.526123046875,27.036376953125,-11.040771484375
0.131,-20.009521484375,25.875244140625,-6.516357421875
0.1315,-22.411865234375,24.393798828125,-2.712646484375
0.132,-25.294677734375,21.470947265625,3.133056640625
0.1325,-27.376708984375,18.708251953125,7.937744140625
0.133,-26.776123046875,13.102783203125,12.982666015625
0.1335,-27.056396484375,9.379150390625,17.026611328125
0.134,-25.254638671875,4.814697265625,19.869384765625
0.1345,-23.292724609375,0.050048828125,22.552001953125
0.135,-20.409912109375,-5.155029296875,24.834228515625
0.1355,-17.687255859375,-10.720458984375,27.556884765625
0.136,-11.681396484375,-15.565185546875,26.355712890625
0.1365,-7.837646484375,-19.288818359375,26.075439453125
0.137,-3.553466796875,-21.450927734375,24.073486328125
0.1375,2.492431640625,-24.573974609375,21.270751953125
0.138,7.217041015625,-26.295654296875,18.427978515625
0.1385,13.222900390625,-27.176513671875,13.463134765625
0.139,17.026611328125,-26.896240234375,9.659423828125
0.1395,20.389892578125,-25.614990234375,5.094970703125
0.14,22.672119140625,-23.693115234375,0.970947265625
0.1405,25.194580078125,-20.930419921875,-4.314208984375
0.141,27.076416015625,-17.847412109375,-9.319091796875
0.1415,25.915283203125,-11.841552734375,-14.163818359375
0.142,26.195556640625,-8.678466796875,-17.647216796875
0.1425,24.193603515625,-4.154052734375,-20.209716796875
0.143,22.231689453125,0.810791015625,-23.052490234375
0.1435,19.428955078125,5.735595703125,-25.134521484375
0.144,15.545166015625,11.781494140625,-27.216552734375
0.1445,10.340087890625,15.945556640625,-26.135498046875
0.145,6.376220703125,19.428955078125,-25.655029296875
0.1455,1.891845703125,21.390869140625,-23.092529296875
0.146,-3.713623046875,24.353759765625,-20.690185546875
0.1465,-8.678466796875,26.235595703125,-17.687255859375
0.147,-14.364013671875,26.115478515625,-12.121826171875
0.1475,-17.487060546875,26.075439453125,-9.038818359375
0.148,-20.850341796875,24.353759765625,-4.154052734375
0.1485,-23.212646484375,22.271728515625,0.290283203125
0.149,-25.334716796875,19.549072265625,5.094970703125
0.1495,-27.016357421875,15.705322265625,10.620361328125
0.15,-25.655029296875,10.099853515625,14.864501953125
0.1505,-25.815185546875,7.056884765625,18.187744140625
0.151,-23.372802734375,2.212158203125,20.590087890625
0.1515,-21.651123046875,-2.752685546875,23.673095703125
0.152,-18.608154296875,-7.837646484375,25.635009765625
0.1525,-13.843505859375,-13.923583984375,26.876220703125
0.153,-9.479248046875,-17.326904296875,25.875244140625
0.1535,-4.954833984375,-20.890380859375,24.834228515625
0.154,0.130126953125,-22.892333984375,21.951416015625
0.1545,5.135009765625,-25.614990234375,19.749267578125
0.155,10.860595703125,-27.176513671875,15.785400390625
0.1555,16.065673828125,-26.615966796875,10.219970703125
0.156,18.948486328125,-26.575927734375,7.417236328125
0.1565,22.431884765625,-24.213623046875,1.771728515625
0.157,24.754150390625,-22.011474609375,-2.792724609375
0.1575,26.395751953125,-19.168701171875,-7.357177734375
0.158,27.396728515625,-14.203857421875,-13.322998046875
0.1585,25.875244140625,-9.078857421875,-16.966552734375
0.159,25.635009765625,-5.635498046875,-20.209716796875
0.1595,22.752197265625,-0.310302734375,-22.572021484375
0.16,20.990478515625,4.614501953125,-25.614990234375
0.1605,17.146728515625,9.979736328125,-26.976318359375
0.161,11.781494140625,15.825439453125,-27.416748046875
0.1615,7.817626953125,18.748291015625,-26.415771484375
0.162,2.292236328125,22.271728515625,-24.373779296875
0.1625,-2.872802734375,24.273681640625,-21.370849609375
0.163,-7.517333984375,26.595947265625,-19.248779296875
0.1635,-13.443115234375,27.276611328125,-14.163818359375
0.164,-17.767333984375,26.235595703125,-8.998779296875
0.1645,-20.690185546875,25.995361328125,-5.995849609375
0.165,-23.733154296875,23.032470703125,0.010009765625
0.1655,-25.975341796875,20.550048828125,4.734619140625
0.166,-26.936279296875,17.266845703125,8.978759765625
0.1665,-27.376708984375,12.021728515625,14.744384765625
0.167,-25.815185546875,7.377197265625,17.827392578125
0.1675,-24.894287109375,3.253173828125,20.990478515625
0.168,-21.931396484375,-1.951904296875,23.152587890625
0.1685,-20.209716796875,-6.636474609375,26.075439453125
0.169,-15.405029296875,-12.121826171875,26.555908203125
0.1695,-10.320068359375,-17.006591796875,26.355712890625
0.17,-6.876708984375,-19.729248046875,25.635009765625
0.1705,-0.910888671875,-22.852294921875,22.872314453125
0.171,4.053955078125,-24.814208984375,19.989501953125
0.1715,8.618408203125,-26.776123046875,17.547119140625
0.172,14.464111328125,-27.056396484375,12.181884765625
0.1725,18.067626953125,-25.775146484375,7.537353515625
0.173,20.950439453125,-25.294677734375,4.254150390625
0.1735,23.633056640625,-22.451904296875,-1.231201171875
0.174,25.915283203125,-20.129638671875,-5.835693359375
0.1745,25.955322265625,-15.765380859375,-10.239990234375
0.175,26.355712890625,-11.120849609375,-15.405029296875
0.1755,25.074462890625,-6.996826171875,-18.207763671875
0.176,23.512939453125,-2.472412109375,-21.210693359375
0.1765,20.910400390625,2.452392578125,-23.372802734375
0.177,19.108642578125,7.177001953125,-26.255615234375
0.1775,13.583251953125,12.782470703125,-26.255615234375
0.178,8.938720703125,16.986572265625,-25.775146484375
0.1785,5.615478515625,19.669189453125,-25.054443359375
0.179,-0.510498046875,22.712158203125,-22.091552734375
0.1795,-5.114990234375,24.714111328125,-19.689208984375
0.18,-10.159912109375,26.075439453125,-16.085693359375
0.1805,-15.204833984375,26.315673828125,-11.521240234375
