wavelength,x,y,z
0.0,-4.5194091796875,25.109497070312,-20.695190429688
0.0005,-9.6043701171875,26.190551757812,-16.811401367188
0.001,-15.369995117188,26.470825195312,-11.606323242188
0.0015,-18.292846679688,25.589965820312,-7.8826904296875
0.002,-21.656127929688,24.228637695312,-3.5584716796875
0.0025,-23.658081054688,21.746215820312,1.2862548828125
0.003,-26.100463867188,19.223754882812,6.2110595703125
0.0035,-26.661010742188,14.338989257812,11.656372070312
0.004,-25.940307617188,9.0938720703125,16.140747070312
0.0045,-25.700073242188,6.1309814453125,18.903442382812
0.005,-23.177612304688,0.6456298828125,21.786254882812
0.0055,-21.335815429688,-3.8387451171875,24.348754882812
0.006,-18.052612304688,-8.8836669921875,26.070434570312
0.0065,-13.167846679688,-14.689331054688,26.911254882812
0.007,-8.4832763671875,-18.052612304688,25.589965820312
0.0075,-4.6395263671875,-21.135620117188,24.869262695312
0.008,1.0460205078125,-23.257690429688,21.465942382812
0.0085,5.8507080078125,-25.980346679688,19.504028320312
0.009,11.255981445312,-26.340698242188,14.619262695312
0.0095,16.340942382812,-26.620971679688,9.8946533203125
0.01,18.983520507812,-25.940307617188,6.5313720703125
0.0105,22.506958007812,-23.978393554688,1.3262939453125
0.011,24.629028320312,-21.215698242188,-3.5184326171875
0.0115,26.550903320312,-18.292846679688,-8.3231201171875
0.012,26.711059570312,-13.127807617188,-13.728393554688
0.0125,25.750122070312,-8.1629638671875,-17.692260742188
0.013,25.309692382812,-5.0799560546875,-20.334838867188
0.0135,22.426879882812,0.7657470703125,-23.137573242188
0.014,20.464965820312,5.4503173828125,-25.900268554688
0.0145,16.020629882812,10.775512695312,-26.661010742188
0.015,11.416137695312,16.100708007812,-27.301635742188
0.0155,6.8917236328125,19.223754882812,-25.980346679688
0.016,2.2471923828125,22.226684570312,-24.378784179688
0.0165,-3.3582763671875,24.268676757812,-21.015502929688
0.017,-8.2830810546875,26.911254882812,-18.733276367188
0.0175,-13.808471679688,26.310668945312,-12.927612304688
0.018,-18.132690429688,26.230590820312,-8.7635498046875
0.0185,-20.775268554688,25.349731445312,-5.2401123046875
0.019,-23.898315429688,22.907348632812,0.3653564453125
0.0195,-25.900268554688,19.824340820312,5.4102783203125
0.02,-27.101440429688,15.980590820312,10.375122070312
0.0205,-26.981323242188,10.935668945312,15.380004882812
0.021,-25.820190429688,6.2510986328125,18.903442382812
0.0215,-24.779174804688,2.6075439453125,21.425903320312
0.022,-21.816284179688,-3.1580810546875,24.148559570312
0.0225,-19.614135742188,-8.2030029296875,26.871215820312
0.023,-14.048706054688,-13.448120117188,26.550903320312
0.0235,-10.004760742188,-17.892456054688,26.911254882812
0.024,-5.6405029296875,-20.695190429688,25.429809570312
0.0245,-0.3953857421875,-23.457885742188,23.027465820312
0.025,5.0899658203125,-25.419799804688,19.544067382812
0.0255,10.415161132812,-27.501831054688,16.501098632812
0.026,15.380004882812,-26.661010742188,10.895629882812
0.0265,19.223754882812,-26.260620117188,6.7716064453125
0.027,21.505981445312,-24.939331054688,3.2882080078125
0.0275,24.508911132812,-22.336791992188,-2.3172607421875
0.028,26.390747070312,-19.133666992188,-7.4022216796875
0.0285,26.590942382812,-14.248901367188,-12.487182617188
0.029,26.590942382812,-10.004760742188,-16.691284179688
0.0295,25.229614257812,-5.4403076171875,-19.854370117188
0.03,23.547973632812,-1.4364013671875,-22.136596679688
0.0305,20.785278320312,3.9688720703125,-24.659057617188
0.031,17.942504882812,9.4141845703125,-27.221557617188
0.0315,12.056762695312,14.379028320312,-26.260620117188
0.032,8.4532470703125,18.222778320312,-26.460815429688
0.0325,4.2091064453125,20.545043945312,-24.659057617188
0.033,-1.2362060546875,23.307739257812,-22.216674804688
0.0335,-6.1209716796875,25.029418945312,-19.053588867188
0.034,-11.926635742188,26.390747070312,-14.769409179688
0.0345,-16.050659179688,25.750122070312,-10.164916992188
0.035,-19.534057617188,25.109497070312,-6.1610107421875
0.0355,-21.495971679688,23.347778320312,-2.5174560546875
0.036,-24.378784179688,20.785278320312,2.9278564453125
0.0365,-26.220581054688,17.462036132812,8.0528564453125
0.037,-25.700073242188,12.016723632812,13.017700195312
0.0375,-25.940307617188,8.5733642578125,16.661254882812
0.038,-24.378784179688,4.1290283203125,19.544067382812
0.0385,-22.617065429688,-0.2752685546875,22.066528320312
0.039,-20.014526367188,-5.2801513671875,24.428833007812
0.0395,-16.330932617188,-11.085815429688,26.510864257812
0.04,-11.005737304688,-15.410034179688,25.469848632812
0.0405,-7.6024169921875,-18.933471679688,25.589965820312
0.041,-3.1981201171875,-21.055541992188,23.107543945312
0.0415,2.3673095703125,-24.058471679688,20.905395507812
0.042,7.3321533203125,-25.660034179688,17.742309570312
0.0425,13.217895507812,-26.260620117188,12.617309570312
0.043,16.701293945312,-25.940307617188,8.9337158203125
0.0435,20.144653320312,-25.059448242188,4.7296142578125
0.044,22.266723632812,-22.937377929688,0.5655517578125
0.0445,24.989379882812,-20.374877929688,-4.7996826171875
0.045,26.430786132812,-16.330932617188,-10.244995117188
0.0455,25.589965820312,-10.845581054688,-14.889526367188
0.046,25.750122070312,-7.8426513671875,-18.052612304688
0.0465,23.788208007812,-2.9578857421875,-20.855346679688
0.047,21.906372070312,1.7667236328125,-23.658081054688
0.0475,18.983520507812,6.8516845703125,-25.740112304688
0.048,14.338989257812,13.057739257812,-27.221557617188
0.0485,9.4141845703125,16.821411132812,-26.020385742188
0.049,5.6905517578125,20.024536132812,-25.900268554688
0.0495,0.6456298828125,22.106567382812,-22.777221679688
0.05,-4.6395263671875,25.029418945312,-20.575073242188
0.0505,-10.124877929688,26.230590820312,-16.411010742188
0.051,-15.570190429688,26.230590820312,-11.165893554688
0.0515,-18.573120117188,25.870239257812,-7.8826904296875
0.052,-21.936401367188,24.268676757812,-2.9578857421875
0.0525,-23.978393554688,21.746215820312,1.5665283203125
0.053,-26.180541992188,18.863403320312,6.6114501953125
0.0535,-27.061401367188,13.938598632812,12.497192382812
0.054,-25.900268554688,8.6534423828125,16.581176757812
0.0545,-25.860229492188,5.7305908203125,19.463989257812
0.055,-23.097534179688,0.2852783203125,22.066528320312
0.0555,-21.295776367188,-4.3992919921875,24.829223632812
0.056,-17.492065429688,-9.6043701171875,26.150512695312
0.0565,-12.647338867188,-15.410034179688,27.031372070312
0.057,-8.2030029296875,-18.533081054688,25.750122070312
0.0575,-3.9989013671875,-21.736206054688,24.749145507812
0.058,1.3663330078125,-23.537963867188,21.385864257812
0.0585,6.2510986328125,-26.140502929688,19.223754882812
0.059,12.096801757812,-26.620971679688,14.058715820312
0.0595,16.781372070312,-26.300659179688,9.2540283203125
0.06,19.584106445312,-26.060424804688,6.2911376953125
0.0605,22.747192382812,-23.778198242188,0.9259033203125
0.061,24.789184570312,-21.215698242188,-3.7186279296875
0.0615,26.310668945312,-17.892456054688,-8.5233154296875
0.062,26.911254882812,-12.807495117188,-14.248901367188
0.0625,25.589965820312,-7.9627685546875,-17.692260742188
0.063,25.309692382812,-4.8397216796875,-20.535034179688
0.0635,22.266723632812,0.7657470703125,-23.017456054688
0.064,20.505004882812,5.4102783203125,-25.900268554688
0.0645,15.660278320312,10.855590820312,-26.380737304688
0.065,11.015747070312,16.140747070312,-26.981323242188
0.0655,7.0919189453125,19.023559570312,-26.020385742188
0.066,2.0469970703125,22.106567382812,-24.138549804688
0.0665,-3.1180419921875,23.988403320312,-20.975463867188
0.067,-8.0828857421875,26.430786132812,-18.573120117188
0.0675,-13.808471679688,26.350708007812,-12.927612304688
0.068,-17.892456054688,25.750122070312,-8.4031982421875
0.0685,-20.575073242188,25.429809570312,-5.4803466796875
0.069,-23.658081054688,22.747192382812,0.2852783203125
0.0695,-25.700073242188,19.944458007812,5.0899658203125
0.07,-26.540893554688,15.780395507812,10.054809570312
0.0705,-26.981323242188,10.935668945312,15.380004882812
0.071,-25.619995117188,6.4112548828125,18.463012695312
0.0715,-24.699096679688,2.5274658203125,21.425903320312
0.072,-21.736206054688,-2.9178466796875,23.828247070312
0.0725,-19.654174804688,-8.0028076171875,26.831176757812
0.073,-13.968627929688,-13.328002929688,26.350708007812
0.0735,-9.7645263671875,-17.972534179688,26.630981445312
0.074,-5.9207763671875,-20.615112304688,25.589965820312
0.0745,-0.1551513671875,-23.618041992188,22.947387695312
0.075,5.0098876953125,-25.379760742188,19.704223632812
0.0755,10.535278320312,-27.301635742188,16.300903320312
0.076,15.580200195312,-26.941284179688,11.015747070312
0.0765,19.343872070312,-26.140502929688,6.6114501953125
0.077,21.906372070312,-25.259643554688,3.2081298828125
0.0775,24.869262695312,-22.376831054688,-2.5975341796875
0.078,26.911254882812,-19.333862304688,-7.7225341796875
0.0785,26.751098632812,-14.048706054688,-12.807495117188
0.079,27.151489257812,-9.9246826171875,-17.331909179688
0.0795,25.589965820312,-5.4403076171875,-20.214721679688
0.08,23.988403320312,-0.9959716796875,-23.057495117188
0.0805,20.945434570312,4.4893798828125,-25.339721679688
0.081,18.022583007812,10.134887695312,-28.022338867188
0.0815,11.976684570312,15.179809570312,-26.981323242188
0.082,7.9727783203125,19.223754882812,-27.021362304688
0.0825,3.8887939453125,21.586059570312,-25.459838867188
0.083,-2.1170654296875,24.629028320312,-22.577026367188
0.0835,-7.1219482421875,26.230590820312,-19.253784179688
0.084,-13.167846679688,27.311645507812,-14.449096679688
0.0845,-17.331909179688,26.871215820312,-10.044799804688
0.085,-20.895385742188,25.830200195312,-5.5203857421875
0.0855,-23.177612304688,24.108520507812,-1.5965576171875
0.086,-25.820190429688,21.105590820312,4.0489501953125
0.0865,-27.621948242188,17.582153320312,9.3741455078125
0.087,-26.781127929688,11.576293945312,14.499145507812
0.0875,-27.061401367188,8.0528564453125,18.302856445312
0.088,-25.259643554688,3.5284423828125,20.985473632812
0.0885,-23.217651367188,-1.3963623046875,23.788208007812
0.089,-20.174682617188,-6.5213623046875,25.790161132812
0.0895,-16.090698242188,-12.527221679688,27.671997070312
0.09,-10.725463867188,-16.811401367188,26.550903320312
0.0905,-6.7615966796875,-20.454956054688,26.270629882812
0.091,-2.4774169921875,-22.376831054688,23.988403320312
0.0915,3.4483642578125,-25.339721679688,21.185668945312
0.092,8.5333251953125,-26.861206054688,17.742309570312
0.0925,14.579223632812,-27.061401367188,12.096801757812
0.093,18.022583007812,-26.861206054688,8.5733642578125
0.0935,21.465942382812,-25.579956054688,3.9688720703125
0.094,23.668090820312,-23.457885742188,-0.3553466796875
0.0945,25.950317382812,-20.454956054688,-5.6004638671875
0.095,27.391723632812,-16.290893554688,-11.205932617188
0.0955,26.230590820312,-10.525268554688,-15.770385742188
0.096,26.390747070312,-7.3621826171875,-19.173706054688
0.0965,24.268676757812,-2.7176513671875,-21.616088867188
0.097,22.266723632812,2.3272705078125,-24.538940429688
0.0975,19.023559570312,7.3721923828125,-26.300659179688
0.098,14.138793945312,13.578247070312,-27.581909179688
0.0985,9.4141845703125,17.301879882812,-26.580932617188
0.099,5.2501220703125,20.905395507812,-25.980346679688
0.0995,0.4854736328125,22.747192382812,-23.217651367188
0.1,-4.8397216796875,25.469848632812,-20.735229492188
0.1005,-10.405151367188,26.751098632812,-16.571166992188
0.101,-15.850463867188,26.310668945312,-10.925659179688
0.1015,-18.933471679688,26.270629882812,-7.9227294921875
0.102,-22.216674804688,24.388793945312,-2.8778076171875
0.1025,-24.498901367188,22.106567382812,1.7266845703125
0.103,-26.300659179688,19.063598632812,6.6114501953125
0.1035,-27.381713867188,14.098754882812,12.577270507812
0.104,-26.100463867188,8.7735595703125,16.621215820312
0.1045,-26.140502929688,5.5303955078125,19.904418945312
0.105,-23.497924804688,0.4454345703125,22.266723632812
0.1055,-21.656127929688,-4.5194091796875,25.269653320312
0.106,-17.692260742188,-9.7645263671875,26.510864257812
0.1065,-12.607299804688,-15.530151367188,27.191528320312
0.107,-8.4832763671875,-18.733276367188,26.230590820312
0.1075,-3.6785888671875,-22.176635742188,24.949340820312
0.108,1.4864501953125,-24.098510742188,21.866333007812
0.1085,6.4112548828125,-26.580932617188,19.504028320312
0.109,12.497192382812,-27.261596679688,14.338989257812
0.1095,17.221801757812,-26.620971679688,9.1339111328125
0.11,20.224731445312,-26.620971679688,6.2110595703125
0.1105,23.507934570312,-24.178588867188,0.5255126953125
0.111,25.790161132812,-21.696166992188,-4.2391357421875
0.1115,26.951293945312,-18.052612304688,-9.0037841796875
0.112,27.671997070312,-12.887573242188,-14.889526367188
0.1125,26.230590820312,-7.8826904296875,-18.412963867188
0.113,25.870239257812,-4.1990966796875,-21.776245117188
0.1135,22.787231445312,1.2061767578125,-24.058471679688
0.114,20.945434570312,6.0909423828125,-26.941284179688
0.1145,15.740356445312,11.696411132812,-27.301635742188
0.115,10.695434570312,17.141723632812,-27.621948242188
0.1155,6.8917236328125,20.024536132812,-26.781127929688
0.116,1.1661376953125,23.467895507812,-24.498901367188
0.1165,-3.9989013671875,25.269653320312,-21.335815429688
0.117,-9.0037841796875,27.351684570312,-18.573120117188
0.1175,-14.889526367188,27.351684570312,-12.847534179688
0.118,-19.053588867188,26.350708007812,-7.8426513671875
0.1185,-21.856323242188,25.990356445312,-4.8397216796875
0.119,-24.859252929688,23.027465820312,1.1661376953125
0.1195,-26.981323242188,20.224731445312,6.0909423828125
0.12,-27.221557617188,15.620239257812,10.895629882812
0.1205,-27.621948242188,10.655395507812,16.300903320312
0.121,-26.100463867188,6.0108642578125,19.383911132812
0.1215,-25.019409179688,1.7266845703125,22.546997070312
0.122,-21.936401367188,-3.5584716796875,24.629028320312
0.1225,-19.734252929688,-8.5633544921875,27.391723632812
0.123,-13.888549804688,-13.888549804688,26.871215820312
0.1235,-9.2039794921875,-18.453002929688,26.711059570312
0.124,-5.7606201171875,-21.015502929688,25.870239257812
0.1245,0.3653564453125,-24.058471679688,22.907348632812
0.125,5.2501220703125,-25.820190429688,19.864379882812
0.1255,10.535278320312,-27.221557617188,16.100708007812
0.126,15.740356445312,-27.181518554688,11.055786132812
0.1265,19.504028320312,-25.980346679688,6.3311767578125
0.127,22.106567382812,-25.259643554688,3.0079345703125
0.1275,24.789184570312,-22.336791992188,-2.5574951171875
0.128,26.951293945312,-19.534057617188,-7.5623779296875
0.1285,26.390747070312,-14.088745117188,-12.447143554688
0.129,26.791137695312,-9.8846435546875,-17.011596679688
0.1295,25.429809570312,-5.7205810546875,-19.814331054688
0.13,23.828247070312,-0.9959716796875,-22.897338867188
0.1305,20.945434570312,4.0889892578125,-24.979370117188
0.131,18.062622070312,9.4542236328125,-27.341674804688
0.1315,12.296997070312,14.579223632812,-26.741088867188
0.132,7.8126220703125,18.703247070312,-26.340698242188
0.1325,4.4093017578125,21.025512695312,-25.259643554688
0.133,-1.7967529296875,24.068481445312,-22.296752929688
0.1335,-6.5614013671875,25.910278320312,-19.494018554688
0.134,-12.286987304688,26.390747070312,-14.409057617188
0.1345,-16.651245117188,26.550903320312,-10.405151367188
0.135,-20.174682617188,25.309692382812,-5.7606201171875
0.1355,-22.617065429688,23.948364257812,-1.9569091796875
0.136,-25.139526367188,20.945434570312,3.5684814453125
0.1365,-27.261596679688,17.782348632812,8.8135986328125
0.137,-26.140502929688,11.696411132812,13.738403320312
0.1375,-26.500854492188,8.1329345703125,17.702270507812
0.138,-25.019409179688,3.9288330078125,20.344848632812
0.1385,-23.097534179688,-1.2762451171875,23.467895507812
0.139,-20.174682617188,-6.2010498046875,25.469848632812
0.1395,-16.090698242188,-12.006713867188,27.151489257812
0.14,-10.965698242188,-16.330932617188,26.390747070312
0.1405,-6.6014404296875,-20.174682617188,25.790161132812
0.141,-2.6375732421875,-22.136596679688,23.868286132812
0.1415,3.4483642578125,-25.139526367188,20.985473632812
0.142,8.6534423828125,-27.021362304688,17.822387695312
0.1425,14.338989257812,-26.661010742188,11.896606445312
0.143,17.942504882812,-26.861206054688,8.6934814453125
0.1435,21.385864257812,-25.339721679688,3.7686767578125
0.144,23.868286132812,-23.417846679688,-0.5955810546875
0.1445,25.950317382812,-20.334838867188,-5.8006591796875
0.145,27.591918945312,-16.290893554688,-11.406127929688
0.1455,26.150512695312,-10.445190429688,-15.810424804688
0.146,26.230590820312,-7.0819091796875,-19.293823242188
0.1465,24.228637695312,-2.5975341796875,-21.696166992188
0.147,22.146606445312,2.7276611328125,-24.859252929688
0.1475,18.903442382812,7.8126220703125,-26.620971679688
0.148,13.858520507812,13.778442382812,-27.461791992188
0.1485,9.3741455078125,17.502075195312,-26.701049804688
0.149,4.7296142578125,21.105590820312,-25.660034179688
0.1495,0.2052001953125,22.947387695312,-23.097534179688
0.15,-5.2000732421875,25.589965820312,-20.494995117188
0.1505,-10.925659179688,27.151489257812,-16.491088867188
0.151,-16.010620117188,26.110473632812,-10.565307617188
0.1515,-19.173706054688,26.270629882812,-7.7225341796875
0.152,-22.376831054688,24.188598632812,-2.5174560546875
0.1525,-24.739135742188,22.066528320312,2.0469970703125
0.153,-26.300659179688,18.743286132812,6.8516845703125
0.1535,-27.381713867188,13.898559570312,12.737426757812
0.154,-25.940307617188,8.6134033203125,16.581176757812
0.1545,-25.740112304688,5.0899658203125,19.864379882812
0.155,-23.337768554688,0.5655517578125,22.026489257812
0.1555,-21.455932617188,-4.5194091796875,25.109497070312
0.156,-17.492065429688,-9.8045654296875,26.390747070312
0.1565,-12.206909179688,-15.249877929688,26.510864257812
0.157,-8.6033935546875,-18.412963867188,26.030395507812
0.1575,-3.5184326171875,-21.776245117188,24.348754882812
0.158,1.2462158203125,-23.658081054688,21.626098632812
0.1585,6.0909423828125,-25.860229492188,19.183715820312
0.159,12.256958007812,-26.941284179688,14.218872070312
0.1595,16.541137695312,-25.780151367188,8.9737548828125
0.16,19.704223632812,-26.100463867188,6.2110595703125
0.1605,22.627075195312,-23.578002929688,0.8458251953125
0.161,25.109497070312,-21.415893554688,-3.8387451171875
0.1615,25.990356445312,-17.812377929688,-8.3631591796875
0.162,26.751098632812,-12.727416992188,-14.128784179688
0.1625,25.469848632812,-8.2430419921875,-17.452026367188
0.163,24.909301757812,-4.1990966796875,-20.815307617188
0.1635,22.346801757812,0.5255126953125,-22.857299804688
0.164,20.464965820312,5.4102783203125,-25.780151367188
0.1645,15.700317382812,11.015747070312,-26.620971679688
0.165,10.415161132812,16.020629882812,-26.300659179688
0.1655,7.3321533203125,19.023559570312,-26.180541992188
0.166,1.4864501953125,22.226684570312,-23.578002929688
0.1665,-3.1981201171875,24.188598632812,-21.095581054688
0.167,-7.9227294921875,25.990356445312,-18.292846679688
0.1675,-14.048706054688,26.630981445312,-13.007690429688
0.168,-17.772338867188,25.309692382812,-8.0428466796875
0.1685,-20.895385742188,25.309692382812,-4.9998779296875
0.169,-23.578002929688,22.426879882812,0.4854736328125
0.1695,-26.020385742188,20.024536132812,5.2901611328125
0.17,-26.220581054688,15.540161132812,9.8946533203125
0.1705,-26.741088867188,10.535278320312,15.380004882812
0.171,-25.539916992188,6.5313720703125,18.262817382812
0.1715,-24.218627929688,1.7667236328125,21.746215820312
0.172,-21.656127929688,-2.8778076171875,23.708129882812
0.1725,-19.494018554688,-7.9627685546875,26.550903320312
0.173,-14.128784179688,-13.408081054688,26.590942382812
0.1735,-9.0438232421875,-17.812377929688,25.910278320312
0.174,-5.9608154296875,-20.494995117188,25.589965820312
0.1745,0.4454345703125,-23.658081054688,22.426879882812
0.175,5.0899658203125,-25.660034179688,19.904418945312
0.1755,10.214965820312,-26.701049804688,15.980590820312
0.176,15.660278320312,-27.141479492188,11.135864257812
0.1765,19.143676757812,-25.660034179688,6.3712158203125
0.177,22.226684570312,-25.019409179688,2.6475830078125
0.1775,24.709106445312,-22.096557617188,-2.8377685546875
0.178,27.071411132812,-19.534057617188,-7.7625732421875
