wavelength,x,y,z
0.0,11.085815429688,-20.665161132812,9.6043701171875
0.0005,14.609252929688,-21.145629882812,6.6014404296875
0.001,16.811401367188,-19.904418945312,3.1580810546875
0.0015,19.373901367188,-18.543090820312,-0.8858642578125
0.002,20.414916992188,-15.740356445312,-4.6895751953125
0.0025,20.815307617188,-12.056762695312,-8.8936767578125
0.003,20.935424804688,-9.3741455078125,-11.696411132812
0.0035,20.134643554688,-5.2100830078125,-15.099731445312
0.004,19.133666992188,-1.9669189453125,-17.381958007812
0.0045,17.411987304688,2.1571044921875,-19.744262695312
0.005,15.369995117188,7.0819091796875,-21.345825195312
0.0055,9.9246826171875,10.765502929688,-20.825317382812
0.006,7.3221435546875,13.968627929688,-21.425903320312
0.0065,2.7977294921875,17.932495117188,-19.544067382812
0.007,-1.3262939453125,19.333862304688,-18.262817382812
0.0075,-5.1700439453125,20.615112304688,-15.780395507812
0.008,-9.9747314453125,23.057495117188,-12.296997070312
0.0085,-12.777465820312,21.215698242188,-9.0137939453125
0.009,-16.461059570312,21.135620117188,-5.2901611328125
0.0095,-18.422973632812,19.534057617188,-1.8468017578125
0.01,-20.665161132812,17.772338867188,2.3572998046875
0.0105,-21.345825195312,14.369018554688,6.5614013671875
0.011,-21.305786132812,10.325073242188,10.525268554688
0.0115,-21.505981445312,7.8426513671875,13.328002929688
0.012,-20.104614257812,3.1580810546875,16.611206054688
0.0125,-18.943481445312,-0.6456298828125,19.173706054688
0.013,-16.421020507812,-4.8096923828125,20.815307617188
0.0135,-11.536254882812,-9.7745361328125,22.256713867188
0.014,-8.6134033203125,-13.017700195312,21.175659179688
0.0145,-5.3302001953125,-16.380981445312,21.295776367188
0.015,-0.6055908203125,-18.663208007812,18.933471679688
0.0155,3.7586669921875,-21.345825195312,17.452026367188
0.016,7.9227294921875,-21.826293945312,13.888549804688
0.0165,12.166870117188,-22.587036132812,10.405151367188
0.017,14.969604492188,-22.026489257812,7.0819091796875
0.0175,18.493041992188,-21.185668945312,2.7176513671875
0.018,20.334838867188,-19.183715820312,-1.1661376953125
0.0185,22.136596679688,-16.821411132812,-5.2901611328125
0.019,22.416870117188,-12.977661132812,-9.4942626953125
0.0195,21.816284179688,-8.9337158203125,-13.057739257812
0.02,21.816284179688,-6.2110595703125,-15.860473632812
0.0205,19.774291992188,-1.1661376953125,-18.743286132812
0.021,18.372924804688,2.8377685546875,-21.345825195312
0.0215,14.729370117188,7.2420654296875,-22.066528320312
0.022,11.245971679688,11.686401367188,-23.107543945312
0.0225,7.0418701171875,14.729370117188,-21.866333007812
0.023,3.1180419921875,17.972534179688,-21.185668945312
0.0235,-1.5665283203125,20.094604492188,-18.783325195312
0.024,-5.9307861328125,22.536987304688,-17.021606445312
0.0245,-10.174926757812,22.456909179688,-11.536254882812
0.025,-13.898559570312,22.657104492188,-9.3741455078125
0.0255,-15.380004882812,22.216674804688,-6.3311767578125
0.026,-19.744262695312,20.695190429688,-1.5665283203125
0.0265,-21.505981445312,18.533081054688,2.3973388671875
0.027,-22.587036132812,15.490112304688,6.6014404296875
0.0275,-22.787231445312,11.686401367188,10.685424804688
0.028,-21.866333007812,7.5223388671875,13.928588867188
0.0285,-21.666137695312,4.5994873046875,16.771362304688
0.029,-19.504028320312,-0.3653564453125,19.453979492188
0.0295,-17.902465820312,-4.5294189453125,22.056518554688
0.03,-13.498168945312,-9.0137939453125,22.096557617188
0.0305,-8.9737548828125,-12.977661132812,22.777221679688
0.031,-6.3311767578125,-15.860473632812,23.057495117188
0.0315,-1.6466064453125,-18.903442382812,20.214721679688
0.032,2.5174560546875,-20.745239257812,18.052612304688
0.0325,7.2821044921875,-23.027465820312,15.610229492188
0.033,11.245971679688,-22.707153320312,11.446166992188
0.0335,14.769409179688,-22.587036132812,7.8026123046875
0.034,17.532104492188,-22.106567382812,4.7596435546875
0.0345,20.414916992188,-20.144653320312,-0.2052001953125
0.035,22.136596679688,-16.661254882812,-4.2091064453125
0.0355,22.617065429688,-14.258911132812,-8.4132080078125
0.036,22.977416992188,-10.935668945312,-12.136840820312
0.0365,21.816284179688,-6.8116455078125,-15.219848632812
0.037,21.135620117188,-3.2481689453125,-18.062622070312
0.0375,19.053588867188,1.3963623046875,-20.545043945312
0.038,16.731323242188,6.2010498046875,-23.027465820312
0.0385,12.086791992188,10.445190429688,-22.627075195312
0.039,8.8836669921875,14.008666992188,-22.987426757812
0.0395,4.9598388671875,16.931518554688,-21.986450195312
0.04,-0.1651611328125,19.974487304688,-20.064575195312
0.0405,-4.1690673828125,21.696166992188,-17.902465820312
0.041,-9.2940673828125,23.377807617188,-14.619262695312
0.0415,-11.536254882812,23.097534179688,-10.895629882812
0.042,-16.380981445312,22.697143554688,-6.9317626953125
0.0425,-18.903442382812,21.816284179688,-3.5684814453125
0.043,-21.546020507812,19.694213867188,2.5574951171875
0.0435,-23.227661132812,17.011596679688,5.7205810546875
0.044,-22.987426757812,12.527221679688,10.004760742188
0.0445,-23.387817382812,9.5643310546875,13.448120117188
0.045,-22.106567382812,5.2000732421875,16.611206054688
0.0455,-20.985473632812,1.1561279296875,19.494018554688
0.046,-18.743286132812,-3.3682861328125,21.696166992188
0.0465,-15.580200195312,-8.6934814453125,23.858276367188
0.047,-10.855590820312,-12.577270507812,23.017456054688
0.0475,-7.4122314453125,-16.020629882812,24.338745117188
0.048,-3.1680908203125,-18.663208007812,21.455932617188
0.0485,2.0770263671875,-21.746215820312,19.333862304688
0.049,6.3211669921875,-23.187622070312,16.691284179688
0.0495,12.807495117188,-24.188598632812,12.527221679688
0.05,14.569213867188,-23.708129882812,9.2440185546875
0.0505,18.372924804688,-22.987426757812,4.7596435546875
0.051,20.735229492188,-21.505981445312,0.9559326171875
0.0515,22.897338867188,-19.183715820312,-3.6885986328125
0.052,24.458862304688,-15.900512695312,-8.5733642578125
0.0525,23.537963867188,-11.095825195312,-12.537231445312
0.053,23.778198242188,-8.3331298828125,-15.580200195312
0.0535,22.056518554688,-3.5684814453125,-18.623168945312
0.054,21.776245117188,0.9158935546875,-21.546020507812
0.0545,17.772338867188,5.2801513671875,-23.187622070312
0.055,13.888549804688,10.845581054688,-24.869262695312
0.0555,9.4442138671875,14.168823242188,-23.708129882812
0.056,5.5203857421875,17.772338867188,-23.427856445312
0.0565,0.9559326171875,19.974487304688,-21.185668945312
0.057,-4.1690673828125,22.897338867188,-19.183715820312
0.0575,-8.6534423828125,24.058471679688,-15.980590820312
0.058,-13.538208007812,24.378784179688,-11.416137695312
0.0585,-16.180786132812,24.098510742188,-8.5333251953125
0.059,-19.904418945312,22.857299804688,-3.6085205078125
0.0595,-21.946411132812,20.975463867188,0.4754638671875
0.06,-23.668090820312,18.252807617188,4.7996826171875
0.0605,-24.869262695312,14.529174804688,9.9246826171875
0.061,-23.588012695312,9.6043701171875,13.568237304688
0.0615,-23.708129882812,6.7615966796875,16.611206054688
0.062,-21.706176757812,1.9569091796875,19.373901367188
0.0625,-20.144653320312,-2.7276611328125,22.456909179688
0.063,-16.741333007812,-7.1319580078125,23.497924804688
0.0635,-12.657348632812,-12.497192382812,24.699096679688
0.064,-8.6134033203125,-15.339965820312,23.537963867188
0.0645,-4.1290283203125,-19.063598632812,22.737182617188
0.065,0.5155029296875,-20.985473632812,20.214721679688
0.0655,5.2801513671875,-23.588012695312,18.132690429688
0.066,10.124877929688,-23.067504882812,14.208862304688
0.0665,14.369018554688,-24.068481445312,9.7244873046875
0.067,17.131713867188,-24.028442382812,7.0418701171875
0.0675,20.535034179688,-22.266723632812,1.9168701171875
0.068,22.697143554688,-20.264770507812,-2.3673095703125
0.0685,23.738159179688,-17.301879882812,-5.1300048828125
0.069,24.819213867188,-13.418090820312,-11.416137695312
0.0695,23.337768554688,-8.8936767578125,-14.619262695312
0.07,23.337768554688,-5.6104736328125,-16.661254882812
0.0705,20.975463867188,-0.9259033203125,-20.264770507812
0.071,19.373901367188,5.1199951171875,-23.387817382812
0.0715,15.209838867188,8.4832763671875,-23.868286132812
0.072,11.085815429688,13.368041992188,-24.548950195312
0.0725,7.5223388671875,16.090698242188,-23.748168945312
0.073,2.3973388671875,19.654174804688,-22.266723632812
0.0735,-2.0870361328125,21.576049804688,-19.864379882812
0.074,-6.6915283203125,23.818237304688,-17.582153320312
0.0745,-11.616333007812,24.578979492188,-13.458129882812
0.075,-15.259887695312,23.738159179688,-9.0538330078125
0.0755,-18.222778320312,23.818237304688,-6.2911376953125
0.076,-21.145629882812,21.616088867188,-1.1661376953125
0.0765,-23.347778320312,19.453979492188,3.3182373046875
0.077,-23.748168945312,15.850463867188,7.4022216796875
0.0775,-24.629028320312,11.846557617188,12.327026367188
0.078,-23.267700195312,7.7625732421875,15.169799804688
0.0785,-22.867309570312,3.8787841796875,18.613159179688
0.079,-20.464965820312,-0.7257080078125,20.775268554688
0.0795,-18.623168945312,-5.4903564453125,23.738159179688
0.08,-14.058715820312,-10.295043945312,23.938354492188
0.0805,-9.7745361328125,-14.619262695312,23.938354492188
0.081,-6.5714111328125,-17.341918945312,23.457885742188
0.0815,-0.8458251953125,-20.665161132812,21.135620117188
0.082,3.5584716796875,-22.546997070312,18.853393554688
0.0825,8.3231201171875,-24.228637695312,15.850463867188
0.083,13.007690429688,-24.789184570312,11.846557617188
0.0835,16.370971679688,-23.708129882812,7.4022216796875
0.084,19.494018554688,-23.547973632812,4.1990966796875
0.0845,22.136596679688,-21.065551757812,-1.0059814453125
0.085,25.619995117188,-18.743286132812,-5.5704345703125
0.0855,24.178588867188,-14.459106445312,-9.7745361328125
0.086,24.779174804688,-10.735473632812,-14.138793945312
0.0865,23.457885742188,-6.7716064453125,-16.861450195312
0.087,22.336791992188,-2.2471923828125,-20.264770507812
0.0875,19.854370117188,2.3572998046875,-22.346801757812
0.088,17.171752929688,7.5223388671875,-24.829223632812
0.0885,12.487182617188,12.086791992188,-24.709106445312
0.089,8.1229248046875,15.970581054688,-24.228637695312
0.0895,4.7196044921875,18.693237304688,-23.588012695312
0.09,-0.0050048828125,21.936401367188,-20.985473632812
0.0905,-5.8106689453125,23.898315429688,-18.503051757812
0.091,-10.895629882812,24.899291992188,-14.419067382812
0.0915,-14.819458007812,25.259643554688,-11.015747070312
0.092,-18.102661132812,23.938354492188,-6.4512939453125
0.0925,-21.025512695312,23.097534179688,-2.7276611328125
0.093,-23.307739257812,20.414916992188,2.3172607421875
0.0935,-25.349731445312,17.572143554688,7.3221435546875
0.094,-24.508911132812,12.567260742188,11.446166992188
0.0945,-24.869262695312,9.0838623046875,16.651245117188
0.095,-23.547973632812,5.0799560546875,18.092651367188
0.0955,-21.866333007812,0.1151123046875,21.455932617188
0.096,-19.263793945312,-4.4893798828125,23.337768554688
0.0965,-15.660278320312,-10.014770507812,25.259643554688
0.097,-11.255981445312,-14.058715820312,24.819213867188
0.0975,-6.7716064453125,-17.662231445312,23.978393554688
0.098,-2.9278564453125,-20.024536132812,22.657104492188
0.0985,2.7977294921875,-23.027465820312,20.014526367188
0.099,7.5623779296875,-24.869262695312,17.211791992188
0.0995,12.567260742188,-24.949340820312,12.367065429688
0.1,15.970581054688,-25.269653320312,9.4442138671875
0.1005,19.373901367188,-23.788208007812,4.5994873046875
0.101,22.136596679688,-22.426879882812,0.4354248046875
0.1015,24.018432617188,-19.624145507812,-4.3292236328125
0.102,25.900268554688,-16.380981445312,-9.5743408203125
0.1025,24.578979492188,-11.336059570312,-13.338012695312
0.103,24.699096679688,-7.9327392578125,-16.941528320312
0.1035,23.177612304688,-2.5675048828125,-19.423950195312
0.104,21.295776367188,1.3162841796875,-22.787231445312
0.1045,18.252807617188,5.9608154296875,-24.388793945312
0.105,13.928588867188,12.807495117188,-25.589965820312
0.1055,10.004760742188,15.009643554688,-25.149536132812
0.106,5.2401123046875,18.693237304688,-24.068481445312
0.1065,1.0360107421875,20.935424804688,-22.146606445312
0.107,-4.2891845703125,23.658081054688,-19.704223632812
0.1075,-9.4942626953125,25.459838867188,-16.461059570312
0.108,-12.817504882812,24.899291992188,-11.336059570312
0.1085,-17.221801757812,25.219604492188,-8.6134033203125
0.109,-19.223754882812,23.497924804688,-3.6885986328125
0.1095,-23.107543945312,21.736206054688,0.7957763671875
0.11,-24.468872070312,18.613159179688,5.2801513671875
0.1105,-25.950317382812,14.729370117188,10.765502929688
0.111,-24.548950195312,9.9246826171875,14.208862304688
0.1115,-24.468872070312,6.2811279296875,17.892456054688
0.112,-22.707153320312,2.2371826171875,20.094604492188
0.1125,-20.825317382812,-3.0880126953125,23.497924804688
0.113,-17.181762695312,-8.0528564453125,24.779174804688
0.1135,-12.417114257812,-13.378051757812,25.299682617188
0.114,-9.0538330078125,-16.300903320312,24.939331054688
0.1145,-3.7686767578125,-19.944458007812,23.337768554688
0.115,0.7557373046875,-22.066528320312,21.095581054688
0.1155,5.6805419921875,-23.067504882812,18.573120117188
0.116,11.245971679688,-25.910278320312,14.649291992188
0.1165,15.289916992188,-24.829223632812,9.6043701171875
0.117,18.533081054688,-25.149536132812,6.7615966796875
0.1175,21.576049804688,-23.027465820312,1.5965576171875
0.118,24.218627929688,-21.025512695312,-3.0880126953125
0.1185,25.019409179688,-17.542114257812,-7.4522705078125
0.119,26.140502929688,-13.338012695312,-12.857543945312
0.1195,24.779174804688,-9.0538330078125,-15.860473632812
0.12,24.258666992188,-4.8897705078125,-19.544067382812
0.1205,21.936401367188,-0.6856689453125,-21.505981445312
0.121,19.974487304688,4.4793701171875,-24.669067382812
0.1215,15.490112304688,9.8446044921875,-25.549926757812
0.122,10.645385742188,14.729370117188,-25.429809570312
0.1225,7.5223388671875,17.532104492188,-25.189575195312
0.123,1.7567138671875,21.015502929688,-22.947387695312
0.1235,-2.9278564453125,23.177612304688,-20.585083007812
0.124,-7.5723876953125,24.979370117188,-17.822387695312
0.1245,-13.177856445312,26.220581054688,-13.618286132812
0.125,-16.541137695312,24.699096679688,-8.8536376953125
0.1255,-19.904418945312,24.899291992188,-5.6505126953125
0.126,-22.426879882812,22.296752929688,-0.5655517578125
0.1265,-24.949340820312,20.134643554688,4.2791748046875
0.127,-25.109497070312,15.930541992188,8.6834716796875
0.1275,-25.790161132812,11.566284179688,13.768432617188
0.128,-24.629028320312,7.8026123046875,16.491088867188
0.1285,-23.668090820312,3.1580810546875,20.134643554688
0.129,-21.225708007812,-1.3262939453125,22.136596679688
0.1295,-19.023559570312,-6.3311767578125,24.819213867188
0.13,-14.298950195312,-11.616333007812,25.499877929688
0.1305,-9.3741455078125,-15.700317382812,24.659057617188
0.131,-6.4913330078125,-18.583129882812,24.659057617188
0.1315,-0.4053955078125,-21.666137695312,21.736206054688
0.132,4.1990966796875,-23.868286132812,19.494018554688
0.1325,10.244995117188,-24.989379882812,15.930541992188
0.133,15.369995117188,-25.950317382812,11.926635742188
0.1335,17.211791992188,-24.388793945312,7.3621826171875
0.134,20.695190429688,-24.228637695312,3.6785888671875
0.1345,22.897338867188,-21.505981445312,-0.0050048828125
0.135,25.259643554688,-17.942504882812,-6.0108642578125
0.1355,24.979370117188,-14.619262695312,-10.415161132812
0.136,25.259643554688,-10.415161132812,-14.939575195312
0.1365,24.378784179688,-7.0919189453125,-17.502075195312
0.137,22.697143554688,-1.8868408203125,-21.065551757812
0.1375,20.334838867188,2.4774169921875,-21.786254882812
0.138,17.291870117188,8.9637451171875,-25.069458007812
0.1385,12.847534179688,12.687377929688,-24.348754882812
0.139,7.9227294921875,16.330932617188,-24.388793945312
0.1395,4.7596435546875,19.253784179688,-24.188598632812
0.14,-1.1661376953125,22.096557617188,-21.185668945312
0.1405,-5.8106689453125,24.458862304688,-19.023559570312
0.141,-10.735473632812,24.859252929688,-14.579223632812
0.1415,-15.179809570312,25.660034179688,-11.055786132812
0.142,-18.102661132812,24.258666992188,-6.8116455078125
0.1425,-21.465942382812,23.337768554688,-1.2862548828125
0.143,-23.347778320312,20.615112304688,2.1571044921875
0.1435,-25.469848632812,17.852416992188,7.0819091796875
0.144,-24.869262695312,12.927612304688,11.486206054688
0.1445,-24.749145507812,8.8436279296875,15.530151367188
0.145,-24.108520507812,5.6805419921875,18.092651367188
0.1455,-22.026489257812,0.1951904296875,21.455932617188
0.146,-19.744262695312,-4.2891845703125,23.618041992188
0.1465,-15.740356445312,-9.6143798828125,24.939331054688
0.147,-11.696411132812,-12.817504882812,25.379760742188
0.1475,-6.8116455078125,-17.502075195312,23.938354492188
0.148,-3.0479736328125,-20.304809570312,22.977416992188
0.1485,2.5174560546875,-22.867309570312,20.134643554688
0.149,7.5223388671875,-25.269653320312,17.612182617188
0.1495,12.407104492188,-24.829223632812,12.487182617188
0.15,16.250854492188,-25.389770507812,9.3240966796875
0.1505,19.253784179688,-24.148559570312,5.0399169921875
0.151,22.456909179688,-22.627075195312,0.3153076171875
0.1515,24.098510742188,-19.744262695312,-4.2891845703125
0.152,25.860229492188,-16.421020507812,-9.4542236328125
0.1525,25.019409179688,-11.736450195312,-13.458129882812
0.153,24.578979492188,-7.6524658203125,-17.141723632812
0.1535,23.618041992188,-4.2491455078125,-19.584106445312
0.154,21.335815429688,1.3563232421875,-22.787231445312
0.1545,18.533081054688,6.2410888671875,-24.869262695312
0.155,13.728393554688,12.807495117188,-25.349731445312
0.1555,10.204956054688,16.651245117188,-25.670043945312
0.156,6.4012451171875,18.813354492188,-24.068481445312
0.1565,0.7557373046875,21.455932617188,-22.426879882812
0.157,-4.4493408203125,23.738159179688,-19.704223632812
0.1575,-9.8145751953125,25.980346679688,-15.380004882812
0.158,-14.218872070312,24.979370117188,-11.376098632812
0.1585,-17.662231445312,25.299682617188,-8.2930908203125
0.159,-20.585083007812,23.778198242188,-2.5675048828125
0.1595,-23.467895507812,21.856323242188,1.0360107421875
0.16,-24.669067382812,18.533081054688,5.5604248046875
0.1605,-25.830200195312,14.449096679688,10.845581054688
0.161,-25.029418945312,10.164916992188,14.409057617188
0.1615,-24.228637695312,5.8006591796875,18.052612304688
0.162,-22.867309570312,2.2371826171875,20.334838867188
0.1625,-20.705200195312,-3.0880126953125,23.377807617188
0.163,-17.381958007812,-8.2130126953125,25.219604492188
0.1635,-12.136840820312,-13.177856445312,24.899291992188
0.164,-9.0538330078125,-16.501098632812,25.099487304688
0.1645,-3.8087158203125,-19.704223632812,23.137573242188
0.165,0.9959716796875,-22.266723632812,21.055541992188
0.1655,5.5203857421875,-23.988403320312,18.292846679688
0.166,11.205932617188,-25.790161132812,14.569213867188
0.1665,14.889526367188,-24.548950195312,9.7244873046875
0.167,18.493041992188,-24.669067382812,6.3211669921875
0.1675,20.975463867188,-22.907348632812,2.1571044921875
0.168,23.658081054688,-20.825317382812,-2.7677001953125
0.1685,24.458862304688,-17.421997070312,-7.1719970703125
0.169,24.979370117188,-13.057739257812,-12.056762695312
0.1695,24.538940429688,-9.4942626953125,-15.259887695312
0.17,23.297729492188,-4.8096923828125,-18.663208007812
0.1705,21.696166992188,-1.0860595703125,-20.825317382812
0.171,19.494018554688,3.7987060546875,-23.387817382812
0.1715,15.730346679688,9.2440185546875,-25.029418945312
0.172,10.605346679688,13.448120117188,-24.188598632812
0.1725,8.9637451171875,16.731323242188,-24.508911132812
0.173,2.6375732421875,19.494018554688,-22.306762695312
0.1735,-2.1671142578125,22.216674804688,-20.384887695312
0.174,-5.1300048828125,23.537963867188,-17.502075195312
0.1745,-11.936645507812,24.979370117188,-13.498168945312
0.175,-15.019653320312,23.898315429688,-9.5343017578125
0.1755,-18.703247070312,23.698120117188,-5.6505126953125
0.176,-20.705200195312,21.856323242188,-1.8468017578125
0.1765,-21.786254882812,19.694213867188,2.8377685546875
0.177,-23.868286132812,15.890502929688,7.4822998046875
0.1775,-23.748168945312,11.366088867188,11.926635742188
0.178,-23.868286132812,8.5233154296875,14.969604492188
