wavelength,x,y,z
0.0,-7.437255859375,-13.202880859375,20.069580078125
0.0005,-3.353271484375,-16.325927734375,19.228759765625
0.001,1.771728515625,-18.808349609375,16.946533203125
0.0015,5.415283203125,-20.169677734375,14.904541015625
0.002,8.458251953125,-20.489990234375,12.502197265625
0.0025,11.421142578125,-20.850341796875,9.939697265625
0.003,15.184814453125,-20.049560546875,5.455322265625
0.0035,17.707275390625,-18.648193359375,1.611572265625
0.004,19.669189453125,-16.606201171875,-2.352294921875
0.0045,20.870361328125,-14.444091796875,-5.675537109375
0.005,20.750244140625,-11.240966796875,-8.718505859375
0.0055,20.670166015625,-7.757568359375,-12.121826171875
0.006,19.989501953125,-3.873779296875,-15.244873046875
0.0065,18.307861328125,0.570556640625,-17.967529296875
0.007,16.025634765625,4.294189453125,-19.529052734375
0.0075,13.663330078125,7.537353515625,-20.449951171875
0.008,10.580322265625,10.660400390625,-20.650146484375
0.0085,5.615478515625,14.624267578125,-19.849365234375
0.009,1.531494140625,17.306884765625,-18.648193359375
0.0095,-3.193115234375,19.509033203125,-16.406005859375
0.01,-6.716552734375,20.870361328125,-14.444091796875
0.0105,-9.959716796875,20.870361328125,-11.401123046875
0.011,-12.922607421875,21.030517578125,-8.718505859375
0.0115,-16.486083984375,20.069580078125,-4.354248046875
0.012,-19.088623046875,18.067626953125,0.250244140625
0.0125,-20.489990234375,15.865478515625,3.813720703125
0.013,-21.410888671875,13.423095703125,7.056884765625
0.0135,-21.210693359375,10.099853515625,10.219970703125
0.014,-20.770263671875,5.815673828125,13.983642578125
0.0145,-19.889404296875,2.092041015625,16.786376953125
0.015,-17.967529296875,-2.312255859375,19.268798828125
0.0155,-15.565185546875,-5.995849609375,20.630126953125
0.016,-12.442138671875,-9.198974609375,20.830322265625
0.0165,-9.399169921875,-12.522216796875,21.190673828125
0.017,-4.073974609375,-16.365966796875,19.989501953125
0.0175,0.650634765625,-18.928466796875,17.987548828125
0.018,4.774658203125,-20.530029296875,15.905517578125
0.0185,8.137939453125,-21.571044921875,13.743408203125
0.019,11.621337890625,-21.410888671875,10.219970703125
0.0195,14.824462890625,-21.050537109375,6.856689453125
0.02,17.947509765625,-20.009521484375,2.812744140625
0.0205,20.429931640625,-17.607177734375,-2.072021484375
0.021,21.470947265625,-15.324951171875,-5.355224609375
0.0215,21.871337890625,-12.322021484375,-8.718505859375
0.022,21.751220703125,-9.038818359375,-11.841552734375
0.0225,20.910400390625,-4.474365234375,-15.565185546875
0.023,19.468994140625,-0.390380859375,-18.207763671875
0.0235,17.346923828125,3.853759765625,-20.329833984375
0.024,14.864501953125,7.537353515625,-21.490966796875
0.0245,11.020751953125,10.900634765625,-21.330810546875
0.025,7.337158203125,14.384033203125,-21.290771484375
0.0255,2.412353515625,17.907470703125,-19.969482421875
0.026,-3.032958984375,20.309814453125,-17.406982421875
0.0265,-6.436279296875,21.470947265625,-15.364990234375
0.027,-9.879638671875,22.151611328125,-12.762451171875
0.0275,-13.202880859375,21.911376953125,-9.319091796875
0.028,-16.646240234375,20.950439453125,-5.034912109375
0.0285,-19.368896484375,19.388916015625,-0.870849609375
0.029,-21.490966796875,16.826416015625,3.813720703125
0.0295,-22.131591796875,14.223876953125,6.896728515625
0.03,-22.171630859375,10.660400390625,10.540283203125
0.0305,-21.931396484375,7.177001953125,13.743408203125
0.031,-20.930419921875,2.692626953125,17.226806640625
0.0315,-18.808349609375,-1.911865234375,19.669189453125
0.032,-16.566162109375,-5.715576171875,21.270751953125
0.0325,-13.963623046875,-9.118896484375,22.151611328125
0.033,-9.879638671875,-12.482177734375,21.791259765625
0.0335,-5.475341796875,-16.045654296875,20.990478515625
0.034,-0.670654296875,-19.088623046875,19.509033203125
0.0345,4.494384765625,-21.130615234375,16.786376953125
0.035,7.617431640625,-21.851318359375,14.544189453125
0.0355,11.140869140625,-22.171630859375,11.501220703125
0.036,14.343994140625,-21.891357421875,8.137939453125
0.0365,17.747314453125,-20.650146484375,3.653564453125
0.037,20.229736328125,-18.568115234375,-0.950927734375
0.0375,21.911376953125,-16.245849609375,-4.954833984375
0.038,22.351806640625,-13.403076171875,-8.077880859375
0.0385,22.111572265625,-9.679443359375,-11.521240234375
0.039,21.551025390625,-5.755615234375,-14.844482421875
0.0395,20.510009765625,-1.631591796875,-17.967529296875
0.04,18.107666015625,3.052978515625,-20.249755859375
0.0405,15.625244140625,6.536376953125,-21.330810546875
0.041,12.662353515625,9.899658203125,-22.051513671875
0.0415,8.578369140625,13.543212890625,-21.611083984375
0.042,3.773681640625,16.986572265625,-20.449951171875
0.0425,-1.111083984375,19.629150390625,-18.528076171875
0.043,-5.635498046875,21.510986328125,-16.165771484375
0.0435,-8.758544921875,21.991455078125,-13.683349609375
0.044,-12.241943359375,22.071533203125,-10.400146484375
0.0445,-15.565185546875,21.591064453125,-6.796630859375
0.045,-18.608154296875,20.189697265625,-2.392333984375
0.0455,-20.890380859375,17.627197265625,2.412353515625
0.046,-22.091552734375,15.304931640625,5.895751953125
0.0465,-22.451904296875,12.181884765625,9.259033203125
0.047,-22.131591796875,8.298095703125,12.862548828125
0.0475,-21.250732421875,4.134033203125,16.065673828125
0.048,-19.889404296875,-0.150146484375,18.948486328125
0.0485,-17.527099609375,-4.674560546875,21.150634765625
0.049,-14.764404296875,-7.877685546875,21.711181640625
0.0495,-11.601318359375,-11.281005859375,22.111572265625
0.05,-7.156982421875,-15.044677734375,21.631103515625
0.0505,-2.232177734375,-18.247802734375,20.149658203125
0.051,2.772705078125,-20.449951171875,17.667236328125
0.0515,6.536376953125,-21.931396484375,15.585205078125
0.052,9.899658203125,-22.211669921875,12.742431640625
0.0525,13.302978515625,-22.051513671875,9.259033203125
0.053,16.666259765625,-21.290771484375,5.295166015625
0.0535,19.589111328125,-19.609130859375,0.770751953125
0.054,21.631103515625,-17.046630859375,-3.833740234375
0.0545,22.271728515625,-14.524169921875,-6.916748046875
0.055,22.511962890625,-11.240966796875,-10.400146484375
0.0555,22.071533203125,-7.076904296875,-14.083740234375
0.056,20.990478515625,-2.992919921875,-17.166748046875
0.0565,19.068603515625,1.411376953125,-19.569091796875
0.057,16.826416015625,5.575439453125,-21.611083984375
0.0575,13.703369140625,8.938720703125,-21.811279296875
0.058,10.139892578125,12.422119140625,-21.931396484375
0.0585,5.495361328125,16.105712890625,-21.210693359375
0.059,0.450439453125,19.228759765625,-19.489013671875
0.0595,-4.394287109375,21.110595703125,-16.886474609375
0.06,-7.717529296875,22.111572265625,-14.764404296875
0.0605,-11.240966796875,22.431884765625,-11.721435546875
0.061,-14.604248046875,21.831298828125,-7.957763671875
0.0615,-17.727294921875,20.830322265625,-3.953857421875
0.062,-20.369873046875,18.748291015625,0.770751953125
0.0625,-22.131591796875,16.225830078125,5.054931640625
0.063,-22.291748046875,13.222900390625,8.177978515625
0.0635,-22.491943359375,9.859619140625,11.621337890625
0.064,-21.811279296875,5.415283203125,15.385009765625
0.0645,-20.610107421875,1.211181640625,18.387939453125
0.065,-18.247802734375,-3.193115234375,20.429931640625
0.0655,-16.085693359375,-6.876708984375,21.991455078125
0.066,-12.722412109375,-10.280029296875,22.151611328125
0.0665,-8.598388671875,-13.843505859375,21.791259765625
0.067,-4.114013671875,-17.126708984375,20.790283203125
0.0675,1.251220703125,-20.009521484375,18.628173828125
0.068,5.655517578125,-21.651123046875,16.145751953125
0.0685,8.778564453125,-22.091552734375,13.623291015625
0.069,12.221923828125,-22.451904296875,10.700439453125
0.0695,15.945556640625,-21.571044921875,6.296142578125
0.07,18.748291015625,-20.249755859375,2.252197265625
0.0705,20.950439453125,-17.967529296875,-2.272216796875
0.071,22.431884765625,-15.565185546875,-6.075927734375
0.0715,22.351806640625,-12.241943359375,-9.279052734375
0.072,22.311767578125,-8.638427734375,-12.842529296875
0.0725,21.470947265625,-4.514404296875,-16.125732421875
0.073,19.949462890625,0.090087890625,-19.168701171875
0.0735,17.346923828125,4.414306640625,-20.890380859375
0.074,14.864501953125,7.737548828125,-21.771240234375
0.0745,11.621337890625,11.180908203125,-22.131591796875
0.075,6.536376953125,15.224853515625,-21.290771484375
0.0755,2.332275390625,18.027587890625,-20.169677734375
0.076,-2.792724609375,20.469970703125,-17.767333984375
0.0765,-6.836669921875,22.031494140625,-15.525146484375
0.077,-9.999755859375,21.991455078125,-12.482177734375
0.0775,-13.122802734375,22.191650390625,-9.679443359375
0.078,-16.886474609375,21.270751953125,-5.155029296875
0.0785,-19.569091796875,19.348876953125,-0.630615234375
0.079,-21.370849609375,16.946533203125,3.533447265625
0.0795,-22.451904296875,14.464111328125,6.976806640625
0.08,-22.371826171875,11.060791015625,10.219970703125
0.0805,-22.011474609375,6.776611328125,14.183837890625
0.081,-21.090576171875,2.972900390625,16.986572265625
0.0815,-19.248779296875,-1.591552734375,19.789306640625
0.082,-16.766357421875,-5.755615234375,21.510986328125
0.0825,-13.763427734375,-8.878662109375,21.751220703125
0.083,-10.720458984375,-12.201904296875,22.151611328125
0.0835,-5.315185546875,-16.285888671875,21.110595703125
0.084,-0.590576171875,-18.968505859375,19.268798828125
0.0845,3.893798828125,-20.850341796875,16.946533203125
0.085,7.657470703125,-22.171630859375,14.864501953125
0.0855,11.020751953125,-22.051513671875,11.501220703125
0.086,14.263916015625,-21.811279296875,8.137939453125
0.0865,17.627197265625,-20.930419921875,4.053955078125
0.087,20.349853515625,-18.728271484375,-0.910888671875
0.0875,21.791259765625,-16.365966796875,-4.714599609375
0.088,22.271728515625,-13.523193359375,-7.957763671875
0.0885,22.351806640625,-10.400146484375,-11.200927734375
0.089,21.711181640625,-5.595458984375,-15.244873046875
0.0895,20.469970703125,-1.631591796875,-17.927490234375
0.09,18.387939453125,2.732666015625,-20.169677734375
0.0905,16.025634765625,6.656494140625,-21.811279296875
0.091,12.302001953125,10.019775390625,-21.611083984375
0.0915,8.818603515625,13.463134765625,-21.771240234375
0.092,3.853759765625,17.186767578125,-20.770263671875
0.0925,-1.551513671875,19.909423828125,-18.407958984375
0.093,-5.475341796875,21.350830078125,-16.165771484375
0.0935,-8.918701171875,22.271728515625,-13.803466796875
0.094,-12.241943359375,22.231689453125,-10.600341796875
0.0945,-15.965576171875,21.390869140625,-6.196044921875
0.095,-18.728271484375,20.229736328125,-2.312255859375
0.0955,-21.010498046875,17.827392578125,2.372314453125
0.096,-22.251708984375,15.344970703125,5.935791015625
0.0965,-22.291748046875,11.901611328125,9.299072265625
0.097,-22.291748046875,8.658447265625,12.582275390625
0.0975,-21.490966796875,3.973876953125,16.426025390625
0.098,-19.729248046875,-0.510498046875,19.148681640625
0.0985,-17.447021484375,-4.434326171875,20.830322265625
0.099,-15.124755859375,-8.037841796875,22.231689453125
0.0995,-11.281005859375,-11.401123046875,21.911376953125
0.1,-6.796630859375,-15.124755859375,21.350830078125
0.1005,-2.352294921875,-18.247802734375,20.229736328125
0.101,3.052978515625,-20.650146484375,17.627197265625
0.1015,6.656494140625,-21.771240234375,15.344970703125
0.102,10.059814453125,-22.051513671875,12.422119140625
0.1025,13.102783203125,-22.091552734375,9.579345703125
0.103,16.946533203125,-21.010498046875,4.734619140625
0.1035,19.509033203125,-19.248779296875,0.490478515625
0.104,21.270751953125,-17.006591796875,-3.593505859375
0.1045,22.191650390625,-14.524169921875,-6.916748046875
0.105,21.991455078125,-10.880615234375,-10.239990234375
0.1055,21.671142578125,-7.116943359375,-13.603271484375
0.106,20.830322265625,-3.072998046875,-16.806396484375
0.1065,18.788330078125,1.571533203125,-19.448974609375
0.107,16.305908203125,5.375244140625,-20.770263671875
0.1075,13.543212890625,8.738525390625,-21.531005859375
0.108,10.139892578125,12.021728515625,-21.531005859375
0.1085,4.854736328125,15.985595703125,-20.449951171875
0.109,0.530517578125,18.588134765625,-18.968505859375
0.1095,-4.154052734375,20.630126953125,-16.646240234375
0.11,-7.597412109375,21.631103515625,-14.404052734375
0.1105,-11.040771484375,21.551025390625,-11.040771484375
0.111,-13.963623046875,21.470947265625,-8.197998046875
0.1115,-17.326904296875,20.349853515625,-3.793701171875
0.112,-19.849365234375,17.987548828125,1.010986328125
0.1125,-21.090576171875,15.745361328125,4.454345703125
0.113,-21.771240234375,13.062744140625,7.697509765625
0.1135,-21.571044921875,9.739501953125,10.860595703125
0.114,-20.930419921875,5.375244140625,14.584228515625
0.1145,-19.929443359375,1.571533203125,17.346923828125
0.115,-17.967529296875,-2.832763671875,19.709228515625
0.1155,-15.525146484375,-6.396240234375,20.910400390625
0.116,-12.241943359375,-9.679443359375,21.110595703125
0.1165,-8.878662109375,-13.002685546875,21.270751953125
0.117,-3.713623046875,-16.686279296875,19.989501953125
0.1175,1.291259765625,-19.168701171875,17.787353515625
0.118,4.974853515625,-20.690185546875,15.825439453125
0.1185,8.338134765625,-21.490966796875,13.463134765625
0.119,11.661376953125,-21.330810546875,10.139892578125
0.1195,15.024658203125,-20.850341796875,6.416259765625
0.12,17.947509765625,-19.809326171875,2.492431640625
0.1205,20.269775390625,-17.406982421875,-2.232177734375
0.121,21.150634765625,-15.164794921875,-5.275146484375
0.1215,21.470947265625,-12.081787109375,-8.598388671875
0.122,21.350830078125,-8.758544921875,-11.721435546875
0.1225,20.510009765625,-4.354248046875,-15.364990234375
0.123,18.988525390625,-0.270263671875,-17.967529296875
0.1235,17.026611328125,3.773681640625,-19.889404296875
0.124,14.464111328125,7.257080078125,-20.890380859375
0.1245,10.860595703125,10.540283203125,-20.810302734375
0.125,6.976806640625,14.103759765625,-20.610107421875
0.1255,2.252197265625,17.427001953125,-19.448974609375
0.126,-2.872802734375,19.709228515625,-16.886474609375
0.1265,-6.115966796875,20.790283203125,-15.004638671875
0.127,-9.479248046875,21.430908203125,-12.442138671875
0.1275,-12.642333984375,21.230712890625,-9.239013671875
0.128,-16.005615234375,20.309814453125,-4.994873046875
0.1285,-18.648193359375,18.708251953125,-0.910888671875
0.129,-20.650146484375,16.385986328125,3.373291015625
0.1295,-21.210693359375,13.943603515625,6.416259765625
0.13,-21.290771484375,10.580322265625,9.739501953125
0.1305,-21.050537109375,7.016845703125,13.062744140625
0.131,-20.209716796875,2.852783203125,16.385986328125
0.1315,-18.167724609375,-1.631591796875,18.748291015625
0.132,-16.125732421875,-5.114990234375,20.229736328125
0.1325,-13.603271484375,-8.478271484375,21.110595703125
0.133,-9.759521484375,-11.721435546875,20.790283203125
0.1335,-5.275146484375,-15.244873046875,19.989501953125
0.134,-0.630615234375,-18.127685546875,18.548095703125
0.1345,4.093994140625,-20.169677734375,16.145751953125
0.135,7.056884765625,-20.810302734375,13.983642578125
0.1355,10.460205078125,-21.130615234375,11.100830078125
0.136,13.623291015625,-20.970458984375,7.817626953125
0.1365,16.826416015625,-19.849365234375,3.613525390625
0.137,19.228759765625,-17.847412109375,-0.790771484375
0.1375,20.750244140625,-15.685302734375,-4.354248046875
0.138,21.110595703125,-12.882568359375,-7.437255859375
0.1385,20.990478515625,-9.479248046875,-10.640380859375
0.139,20.469970703125,-5.635498046875,-13.963623046875
0.1395,19.509033203125,-1.631591796875,-16.966552734375
0.14,17.266845703125,2.772705078125,-19.128662109375
0.1405,14.944580078125,5.975830078125,-20.049560546875
0.141,12.101806640625,9.259033203125,-20.690185546875
0.1415,8.097900390625,12.782470703125,-20.409912109375
0.142,3.533447265625,16.025634765625,-19.288818359375
0.1425,-1.151123046875,18.508056640625,-17.326904296875
0.143,-5.114990234375,20.229736328125,-15.364990234375
0.1435,-8.157958984375,20.670166015625,-12.962646484375
0.144,-11.281005859375,20.750244140625,-10.039794921875
0.1445,-14.604248046875,20.309814453125,-6.436279296875
0.145,-17.447021484375,18.988525390625,-2.352294921875
0.1455,-19.569091796875,16.706298828125,2.052001953125
0.146,-20.489990234375,14.584228515625,5.094970703125
0.1465,-20.850341796875,11.621337890625,8.338134765625
0.147,-20.650146484375,8.017822265625,11.701416015625
0.1475,-19.889404296875,4.134033203125,14.744384765625
0.148,-18.568115234375,0.050048828125,17.386962890625
0.1485,-16.526123046875,-3.953857421875,19.509033203125
0.149,-13.963623046875,-7.036865234375,20.069580078125
0.1495,-11.000732421875,-10.159912109375,20.429931640625
0.15,-6.836669921875,-13.763427734375,20.029541015625
0.1505,-2.192138671875,-16.806396484375,18.628173828125
0.151,2.412353515625,-18.848388671875,16.345947265625
0.1515,5.735595703125,-20.169677734375,14.624267578125
0.152,8.818603515625,-20.570068359375,12.021728515625
0.1525,11.981689453125,-20.449951171875,8.898681640625
0.153,15.104736328125,-19.809326171875,5.215087890625
0.1535,17.827392578125,-18.207763671875,1.091064453125
0.154,19.749267578125,-15.965576171875,-3.072998046875
0.1545,20.189697265625,-13.603271484375,-5.835693359375
0.155,20.469970703125,-10.720458984375,-8.998779296875
0.1555,20.149658203125,-6.916748046875,-12.402099609375
0.156,19.268798828125,-3.072998046875,-15.364990234375
0.1565,17.427001953125,0.970947265625,-17.567138671875
0.157,15.585205078125,4.534423828125,-19.328857421875
0.1575,12.742431640625,7.697509765625,-19.729248046875
0.158,9.499267578125,10.860595703125,-19.809326171875
0.1585,5.415283203125,14.223876953125,-19.248779296875
0.159,0.650634765625,17.186767578125,-17.687255859375
0.1595,-3.673583984375,19.068603515625,-15.485107421875
0.16,-6.516357421875,19.829345703125,-13.643310546875
0.1605,-9.719482421875,20.229736328125,-11.080810546875
0.161,-12.962646484375,19.869384765625,-7.597412109375
0.1615,-15.765380859375,19.028564453125,-3.993896484375
0.162,-18.127685546875,17.226806640625,0.170166015625
0.1625,-19.809326171875,15.104736328125,3.853759765625
0.163,-19.929443359375,12.422119140625,6.696533203125
0.1635,-20.129638671875,9.339111328125,9.859619140625
0.164,-19.609130859375,5.495361328125,13.142822265625
0.1645,-18.648193359375,1.571533203125,16.145751953125
0.165,-16.606201171875,-2.432373046875,18.067626953125
0.1655,-14.724365234375,-5.475341796875,19.268798828125
0.166,-11.921630859375,-8.678466796875,19.829345703125
0.1665,-7.997802734375,-12.121826171875,19.468994140625
0.167,-4.033935546875,-15.004638671875,18.628173828125
0.1675,0.770751953125,-17.567138671875,16.786376953125
0.168,4.494384765625,-19.288818359375,14.864501953125
0.1685,7.297119140625,-19.609130859375,12.582275390625
0.169,10.219970703125,-20.049560546875,10.219970703125
0.1695,13.743408203125,-19.529052734375,6.296142578125
0.17,16.466064453125,-18.247802734375,2.572509765625
0.1705,18.387939453125,-16.365966796875,-1.351318359375
0.171,19.669189453125,-14.404052734375,-4.514404296875
0.1715,19.789306640625,-11.521240234375,-7.437255859375
0.172,19.709228515625,-8.157958984375,-10.760498046875
0.1725,19.108642578125,-4.634521484375,-13.603271484375
0.173,17.827392578125,-0.630615234375,-16.406005859375
0.1735,15.785400390625,3.293212890625,-18.287841796875
0.174,13.463134765625,6.176025390625,-18.928466796875
0.1745,10.940673828125,9.218994140625,-19.529052734375
0.175,6.416259765625,12.942626953125,-18.928466796875
0.1755,2.412353515625,15.665283203125,-17.927490234375
0.176,-1.951904296875,17.747314453125,-15.925537109375
0.1765,-5.395263671875,19.268798828125,-14.243896484375
0.177,-8.238037109375,19.428955078125,-11.681396484375
0.1775,-11.080810546875,19.589111328125,-9.038818359375
0.178,-14.364013671875,19.068603515625,-5.395263671875
0.1785,-16.966552734375,17.467041015625,-1.271240234375
0.179,-18.648193359375,15.425048828125,2.492431640625
0.1795,-19.368896484375,13.222900390625,5.295166015625
0.18,-19.649169921875,10.460205078125,8.298095703125
0.1805,-19.328857421875,6.456298828125,11.941650390625
0.181,-18.568115234375,3.133056640625,14.584228515625
