wavelength,x,y,z
0.0,-5.9658203125,9.9697265625,-4.083984375
0.0005,-7.7275390625,9.76953125,-2.2822265625
0.001,-8.328125,8.9287109375,-0.80078125
0.0015,-9.208984375,7.8076171875,1.12109375
0.002,-9.5693359375,6.5263671875,2.8427734375
0.0025,-9.9697265625,5.205078125,4.6044921875
0.003,-9.7294921875,3.04296875,6.5263671875
0.0035,-9.529296875,1.44140625,7.9677734375
0.004,-8.328125,-0.400390625,8.6484375
0.0045,-7.3671875,-2.2822265625,9.4892578125
0.005,-6.0859375,-4.00390625,9.8896484375
0.0055,-4.64453125,-5.6455078125,10.08984375
0.006,-2.6025390625,-7.5673828125,9.9697265625
0.0065,-0.9609375,-8.4482421875,9.2490234375
0.007,1.2412109375,-9.3291015625,8.0078125
0.0075,3.0830078125,-10.009765625,6.88671875
0.008,4.884765625,-10.4501953125,5.60546875
0.0085,6.646484375,-10.490234375,3.84375
0.009,8.328125,-10.3701171875,2.08203125
0.0095,8.888671875,-9.2490234375,0.48046875
0.01,9.849609375,-8.16796875,-1.4814453125
0.0105,10.2099609375,-6.7666015625,-3.203125
0.011,10.490234375,-5.28515625,-5.0048828125
0.0115,10.25,-3.1630859375,-7.0068359375
0.012,9.9697265625,-1.4814453125,-8.3681640625
0.0125,8.568359375,0.6005859375,-9.0087890625
0.013,7.607421875,2.5224609375,-9.9697265625
0.0135,6.1259765625,4.2841796875,-10.25
0.014,4.484375,6.0458984375,-10.330078125
0.0145,2.3623046875,7.9677734375,-10.169921875
0.015,0.4404296875,8.8486328125,-9.12890625
0.0155,-1.8017578125,9.609375,-7.7275390625
0.016,-3.443359375,10.169921875,-6.7265625
0.0165,-5.4853515625,10.2900390625,-4.96484375
0.017,-7.126953125,10.169921875,-3.203125
0.0175,-8.728515625,9.8095703125,-1.361328125
0.018,-9.2490234375,8.4482421875,0.6005859375
0.0185,-9.9296875,7.3671875,2.3623046875
0.019,-10.1298828125,5.8857421875,4.083984375
0.0195,-10.2099609375,4.083984375,6.005859375
0.02,-9.8896484375,1.9619140625,7.767578125
0.0205,-9.2890625,0.1201171875,9.048828125
0.021,-7.7275390625,-1.9619140625,9.529296875
0.0215,-6.88671875,-3.4833984375,10.169921875
0.022,-5.1650390625,-5.3251953125,10.2900390625
0.0225,-3.443359375,-6.9267578125,10.2099609375
0.023,-1.44140625,-8.6083984375,9.849609375
0.0235,0.6005859375,-9.2890625,8.6083984375
0.024,2.642578125,-10.009765625,7.3271484375
0.0245,4.32421875,-10.5302734375,6.166015625
0.025,6.326171875,-10.5703125,4.2841796875
0.0255,7.6875,-10.41015625,2.72265625
0.026,9.0888671875,-9.849609375,0.9609375
0.0265,9.529296875,-8.408203125,-0.9208984375
0.027,10.2099609375,-7.447265625,-2.6025390625
0.0275,10.3701171875,-5.765625,-4.404296875
0.028,10.330078125,-4.00390625,-6.2060546875
0.0285,10.0498046875,-2.2021484375,-7.7275390625
0.029,9.2490234375,-0.16015625,-8.96875
0.0295,7.8076171875,1.841796875,-9.4892578125
0.03,6.88671875,3.443359375,-10.2099609375
0.0305,5.044921875,5.4052734375,-10.25
0.031,3.4033203125,6.9267578125,-10.1298828125
0.0315,1.4013671875,8.3681640625,-9.609375
0.032,-0.720703125,9.208984375,-8.328125
0.0325,-2.72265625,9.849609375,-7.0869140625
0.033,-4.5244140625,10.330078125,-5.845703125
0.0335,-6.56640625,10.2099609375,-3.84375
0.034,-7.7275390625,9.9697265625,-2.4423828125
0.0345,-8.9287109375,9.208984375,-0.5205078125
0.035,-9.4091796875,7.8076171875,1.4013671875
0.0355,-10.0498046875,6.6865234375,3.203125
0.036,-10.169921875,4.7646484375,5.205078125
0.0365,-10.009765625,2.8828125,6.966796875
0.037,-9.4892578125,1.1611328125,8.16796875
0.0375,-8.48828125,-0.9609375,9.2490234375
0.038,-7.0869140625,-2.802734375,9.76953125
0.0385,-6.0458984375,-4.564453125,10.41015625
0.039,-3.8837890625,-6.56640625,10.2900390625
0.0395,-2.2822265625,-7.8876953125,10.009765625
0.04,-0.2802734375,-8.96875,9.0888671875
0.0405,1.76171875,-9.7294921875,7.84765625
0.041,3.84375,-10.41015625,6.486328125
0.0415,5.60546875,-10.650390625,5.044921875
0.042,7.52734375,-10.4501953125,3.04296875
0.0425,8.3681640625,-9.9296875,1.7216796875
0.043,9.4091796875,-8.96875,-0.2802734375
0.0435,9.849609375,-7.6474609375,-2.001953125
0.044,10.41015625,-6.40625,-3.84375
0.0445,10.2900390625,-4.3642578125,-5.765625
0.045,10.169921875,-2.642578125,-7.4072265625
0.0455,9.3291015625,-0.9208984375,-8.2880859375
0.046,8.2880859375,1.1611328125,-9.2890625
0.0465,6.966796875,3.0029296875,-9.8095703125
0.047,5.7255859375,4.7646484375,-10.2900390625
0.0475,3.5634765625,6.7265625,-10.1298828125
0.048,2.08203125,7.84765625,-9.76953125
0.0485,-0.1201171875,8.7685546875,-8.6083984375
0.049,-2.08203125,9.529296875,-7.4873046875
0.0495,-3.9638671875,10.009765625,-6.1259765625
0.05,-5.6455078125,10.2099609375,-4.564453125
0.0505,-7.52734375,10.0498046875,-2.642578125
0.051,-8.2080078125,9.2890625,-1.3212890625
0.0515,-9.12890625,8.2080078125,0.7607421875
0.052,-9.609375,6.88671875,2.5224609375
0.0525,-10.08984375,5.5654296875,4.32421875
0.053,-9.9296875,3.4833984375,6.24609375
0.0535,-9.76953125,1.841796875,7.8076171875
0.054,-8.6484375,0.0,8.5283203125
0.0545,-7.6474609375,-2.0419921875,9.4892578125
0.055,-6.2861328125,-3.8037109375,9.9697265625
0.0555,-4.9248046875,-5.4853515625,10.2099609375
0.056,-2.8427734375,-7.4873046875,10.08984375
0.0565,-1.1611328125,-8.48828125,9.44921875
0.057,1.041015625,-9.3291015625,8.1279296875
0.0575,2.8427734375,-10.08984375,7.0869140625
0.058,4.8046875,-10.4501953125,5.685546875
0.0585,6.486328125,-10.4501953125,4.00390625
0.059,8.2880859375,-10.2900390625,2.162109375
0.0595,8.80859375,-9.2490234375,0.6005859375
0.06,9.7294921875,-8.1279296875,-1.44140625
0.0605,10.08984375,-6.806640625,-3.0830078125
0.061,10.330078125,-5.28515625,-4.9248046875
0.0615,10.1298828125,-3.203125,-6.7666015625
0.062,9.8896484375,-1.4814453125,-8.248046875
0.0625,8.4482421875,0.48046875,-8.8486328125
0.063,7.52734375,2.3623046875,-9.7294921875
0.0635,6.0859375,4.083984375,-10.009765625
0.064,4.5244140625,5.7255859375,-10.1298828125
0.0645,2.5224609375,7.52734375,-9.9697265625
0.065,0.6806640625,8.4482421875,-9.048828125
0.0655,-1.5615234375,9.2490234375,-7.6875
0.066,-3.203125,9.8896484375,-6.6865234375
0.0665,-5.125,10.08984375,-5.044921875
0.067,-6.6865234375,10.009765625,-3.4033203125
0.0675,-8.2880859375,9.7294921875,-1.6015625
0.068,-8.80859375,8.4482421875,0.16015625
0.0685,-9.609375,7.4072265625,2.0419921875
0.069,-9.849609375,6.0458984375,3.6435546875
0.0695,-10.009765625,4.32421875,5.4853515625
0.07,-9.76953125,2.3623046875,7.287109375
0.0705,-9.2890625,0.560546875,8.6083984375
0.071,-7.8076171875,-1.4814453125,9.1689453125
0.0715,-7.0068359375,-3.0830078125,9.9296875
0.072,-5.4453125,-4.884765625,10.1298828125
0.0725,-3.763671875,-6.6064453125,10.1298828125
0.073,-1.76171875,-8.328125,9.8095703125
0.0735,0.2802734375,-9.1689453125,8.6884765625
0.074,2.3623046875,-9.8896484375,7.447265625
0.0745,3.9638671875,-10.41015625,6.40625
0.075,6.0458984375,-10.490234375,4.484375
0.0755,7.4873046875,-10.2900390625,2.962890625
0.076,8.888671875,-9.849609375,1.12109375
0.0765,9.369140625,-8.408203125,-0.7607421875
0.077,10.08984375,-7.4072265625,-2.4423828125
0.0775,10.2099609375,-5.8056640625,-4.2041015625
0.078,10.2099609375,-4.00390625,-6.0859375
0.0785,9.8896484375,-2.2021484375,-7.5673828125
0.079,9.0888671875,-0.240234375,-8.728515625
0.0795,7.6474609375,1.76171875,-9.2490234375
0.08,6.8466796875,3.2431640625,-9.8896484375
0.0805,4.96484375,5.0849609375,-9.9697265625
0.081,3.36328125,6.56640625,-9.849609375
0.0815,1.4013671875,7.9677734375,-9.3291015625
0.082,-0.6005859375,8.80859375,-8.087890625
0.0825,-2.5625,9.529296875,-6.9267578125
0.083,-4.2041015625,9.9296875,-5.765625
0.0835,-6.1259765625,9.8896484375,-3.84375
0.084,-7.20703125,9.609375,-2.5625
0.0845,-8.328125,8.888671875,-0.6806640625
0.085,-8.8486328125,7.607421875,1.0810546875
0.0855,-9.529296875,6.56640625,2.7626953125
0.086,-9.6494140625,4.8046875,4.64453125
0.0865,-9.609375,3.1630859375,6.326171875
0.087,-9.1689453125,1.521484375,7.52734375
0.0875,-8.328125,-0.4404296875,8.6083984375
0.088,-7.0869140625,-2.2021484375,9.0888671875
0.0885,-6.166015625,-3.84375,9.8095703125
0.089,-4.2041015625,-5.8056640625,9.76953125
0.0895,-2.7626953125,-7.0869140625,9.609375
0.09,-0.80078125,-8.2880859375,8.9287109375
0.0905,1.1611328125,-9.048828125,7.767578125
0.091,3.1630859375,-9.8095703125,6.646484375
0.0915,4.9248046875,-10.2099609375,5.28515625
0.092,6.7666015625,-10.1298828125,3.443359375
0.0925,7.6875,-9.76953125,2.2421875
0.093,8.7685546875,-8.888671875,0.2802734375
0.0935,9.2490234375,-7.6875,-1.44140625
0.094,9.9296875,-6.5263671875,-3.203125
0.0945,9.9296875,-4.6044921875,-5.1650390625
0.095,9.8095703125,-2.8828125,-6.7666015625
0.0955,9.0888671875,-1.28125,-7.767578125
0.096,8.16796875,0.7607421875,-8.7685546875
0.0965,6.88671875,2.5224609375,-9.2890625
0.097,5.7255859375,4.2041015625,-9.8095703125
0.0975,3.7236328125,6.0859375,-9.76953125
0.098,2.322265625,7.287109375,-9.4091796875
0.0985,0.2001953125,8.248046875,-8.328125
0.099,-1.681640625,8.96875,-7.20703125
0.0995,-3.5634765625,9.5693359375,-5.9658203125
0.1,-5.2451171875,9.6494140625,-4.484375
0.1005,-7.0068359375,9.609375,-2.6826171875
0.101,-7.6875,8.9287109375,-1.44140625
0.1015,-8.6083984375,7.927734375,0.48046875
0.102,-8.96875,6.6865234375,2.162109375
0.1025,-9.529296875,5.4853515625,3.8837890625
0.103,-9.369140625,3.443359375,5.765625
0.1035,-9.2490234375,1.9619140625,7.1669921875
0.104,-8.2880859375,0.240234375,7.927734375
0.1045,-7.3271484375,-1.681640625,8.80859375
0.105,-6.1259765625,-3.4033203125,9.2890625
0.1055,-4.8447265625,-5.0048828125,9.609375
0.106,-2.8828125,-6.7666015625,9.529296875
0.1065,-1.44140625,-7.6875,8.9287109375
0.107,0.6005859375,-8.5283203125,7.8076171875
0.1075,2.40234375,-9.208984375,6.7666015625
0.108,4.1640625,-9.76953125,5.60546875
0.1085,5.8056640625,-9.76953125,4.00390625
0.109,7.4072265625,-9.7294921875,2.4423828125
0.1095,7.8876953125,-8.8486328125,1.0810546875
0.11,8.8486328125,-7.8876953125,-0.80078125
0.1105,9.2490234375,-6.646484375,-2.4423828125
0.111,9.609375,-5.4052734375,-4.1240234375
0.1115,9.44921875,-3.36328125,-5.92578125
0.112,9.2490234375,-1.9619140625,-7.20703125
0.1125,8.1279296875,-0.2001953125,-7.8876953125
0.113,7.20703125,1.6015625,-8.7685546875
0.1135,6.005859375,3.3232421875,-9.2490234375
0.114,4.6044921875,4.8447265625,-9.3291015625
0.1145,2.7626953125,6.6865234375,-9.2890625
0.115,1.201171875,7.4873046875,-8.48828125
0.1155,-0.9208984375,8.328125,-7.3671875
0.116,-2.5224609375,8.9287109375,-6.3662109375
0.1165,-4.1640625,9.2490234375,-5.125
0.117,-5.7255859375,9.208984375,-3.5634765625
0.1175,-7.1669921875,9.048828125,-2.0419921875
0.118,-7.6474609375,7.927734375,-0.48046875
0.1185,-8.48828125,7.0869140625,1.28125
0.119,-8.80859375,5.765625,2.8427734375
0.1195,-9.0087890625,4.4443359375,4.484375
0.12,-8.8486328125,2.5224609375,6.2060546875
0.1205,-8.48828125,1.0009765625,7.287109375
0.121,-7.2470703125,-0.8408203125,7.8876953125
0.1215,-6.4462890625,-2.322265625,8.6484375
0.122,-5.205078125,-3.8837890625,8.96875
0.1225,-3.8037109375,-5.4052734375,8.96875
0.123,-2.0419921875,-6.966796875,8.888671875
0.1235,-0.3603515625,-7.6474609375,7.8076171875
0.124,1.521484375,-8.48828125,6.88671875
0.1245,3.0029296875,-8.96875,5.8857421875
0.125,4.6044921875,-9.208984375,4.6044921875
0.1255,6.0859375,-9.12890625,3.1630859375
0.126,7.287109375,-8.888671875,1.76171875
0.1265,7.6875,-7.7275390625,0.2001953125
0.127,8.5283203125,-7.0068359375,-1.361328125
0.1275,8.7685546875,-5.7255859375,-2.8828125
0.128,8.888671875,-4.3642578125,-4.404296875
0.1285,8.80859375,-2.6826171875,-6.0458984375
0.129,8.2080078125,-1.2412109375,-6.966796875
0.1295,7.0869140625,0.6005859375,-7.607421875
0.13,6.40625,2.0419921875,-8.328125
0.1305,5.125,3.603515625,-8.6484375
0.131,3.763671875,5.0849609375,-8.6884765625
0.1315,2.162109375,6.5263671875,-8.48828125
0.132,0.3203125,7.1669921875,-7.4072265625
0.1325,-1.44140625,8.1279296875,-6.6064453125
0.133,-2.9228515625,8.568359375,-5.60546875
0.1335,-4.5244140625,8.80859375,-4.32421875
0.134,-5.845703125,8.7685546875,-2.962890625
0.1345,-6.966796875,8.2880859375,-1.44140625
0.135,-7.4873046875,7.1669921875,0.2001953125
0.1355,-8.248046875,6.40625,1.6416015625
0.136,-8.4482421875,4.9248046875,3.36328125
0.1365,-8.6083984375,3.4833984375,4.9248046875
0.137,-8.408203125,1.841796875,6.40625
0.1375,-7.5673828125,0.1201171875,7.3271484375
0.138,-6.646484375,-1.4814453125,7.9677734375
0.1385,-5.8056640625,-2.8828125,8.6083984375
0.139,-4.244140625,-4.64453125,8.7685546875
0.1395,-2.8427734375,-5.9658203125,8.6884765625
0.14,-1.1611328125,-7.20703125,8.2080078125
0.1405,0.720703125,-7.8076171875,7.046875
0.141,2.40234375,-8.6884765625,6.24609375
0.1415,4.083984375,-8.96875,4.9248046875
0.142,5.60546875,-9.048828125,3.5634765625
0.1425,6.6865234375,-8.8486328125,2.2822265625
0.143,7.5673828125,-8.1279296875,0.6806640625
0.1435,8.0478515625,-7.0869140625,-0.8408203125
0.144,8.6884765625,-6.24609375,-2.322265625
0.1445,8.7685546875,-4.5244140625,-4.1640625
0.145,8.7685546875,-3.2431640625,-5.4453125
0.1455,8.408203125,-1.5615234375,-6.7265625
0.146,7.447265625,0.1201171875,-7.447265625
0.1465,6.56640625,1.7216796875,-8.16796875
0.147,5.525390625,3.283203125,-8.6884765625
0.1475,3.923828125,5.0048828125,-8.7685546875
0.148,2.6025390625,6.1259765625,-8.6083984375
0.1485,0.80078125,7.287109375,-7.927734375
0.149,-1.041015625,7.9677734375,-6.8466796875
0.1495,-2.72265625,8.7685546875,-6.0458984375
0.15,-4.5244140625,8.96875,-4.5244140625
0.1505,-5.9658203125,9.048828125,-3.1630859375
0.151,-6.9267578125,8.6484375,-1.8818359375
0.1515,-7.84765625,7.767578125,-0.080078125
0.152,-8.3681640625,6.646484375,1.5615234375
0.1525,-9.0087890625,5.525390625,3.3232421875
0.153,-9.0087890625,3.5234375,5.28515625
0.1535,-8.9287109375,2.2421875,6.56640625
0.154,-8.16796875,0.3603515625,7.6875
0.1545,-7.20703125,-1.44140625,8.4482421875
0.155,-6.1259765625,-3.1630859375,9.12890625
0.1555,-4.6845703125,-4.9248046875,9.44921875
0.156,-2.8427734375,-6.7666015625,9.44921875
0.1565,-1.28125,-7.6875,8.80859375
0.157,0.720703125,-8.6484375,7.8076171875
0.1575,2.5625,-9.208984375,6.6064453125
0.158,4.3642578125,-9.8095703125,5.4853515625
0.1585,6.2060546875,-9.76953125,3.6435546875
0.159,7.6875,-9.6494140625,2.1220703125
0.1595,8.248046875,-8.6484375,0.6005859375
0.16,9.12890625,-7.767578125,-1.3212890625
0.1605,9.3291015625,-6.40625,-2.8828125
0.161,9.6494140625,-5.0849609375,-4.564453125
0.1615,9.44921875,-2.8828125,-6.4462890625
0.162,9.0888671875,-1.4814453125,-7.4873046875
0.1625,7.9677734375,0.400390625,-8.248046875
0.163,6.9267578125,2.08203125,-8.8486328125
0.1635,5.7255859375,3.7236328125,-9.3291015625
0.164,4.2041015625,5.3251953125,-9.369140625
0.1645,2.40234375,7.046875,-9.2890625
0.165,0.7607421875,7.6875,-8.328125
0.1655,-1.2412109375,8.6083984375,-7.287109375
0.166,-2.8828125,9.048828125,-6.1259765625
0.1665,-4.5244140625,9.4892578125,-4.96484375
0.167,-6.24609375,9.3291015625,-3.203125
0.1675,-7.52734375,9.208984375,-1.841796875
0.168,-7.8876953125,8.0478515625,-0.2802734375
0.1685,-8.888671875,7.126953125,1.521484375
0.169,-9.1689453125,5.765625,3.1630859375
0.1695,-9.44921875,4.4443359375,4.8447265625
0.17,-9.3291015625,2.40234375,6.806640625
0.1705,-8.8486328125,0.9208984375,7.767578125
0.171,-7.6474609375,-1.0810546875,8.6083984375
0.1715,-6.7265625,-2.72265625,9.2890625
0.172,-5.4453125,-4.4443359375,9.689453125
0.1725,-3.7236328125,-6.1259765625,9.689453125
0.173,-1.9619140625,-7.8076171875,9.609375
0.1735,0.0400390625,-8.48828125,8.2880859375
0.174,2.001953125,-9.4091796875,7.3671875
0.1745,3.68359375,-9.8095703125,6.0859375
0.175,5.4853515625,-10.1298828125,4.6044921875
0.1755,7.287109375,-9.9697265625,2.802734375
0.176,8.4482421875,-9.609375,1.2412109375
0.1765,8.96875,-8.2080078125,-0.6806640625
0.177,9.689453125,-7.287109375,-2.1220703125
0.1775,9.849609375,-5.765625,-3.9638671875
0.178,9.8896484375,-4.0439453125,-5.7255859375
0.1785,9.6494140625,-2.0419921875,-7.52734375
0.179,8.80859375,-0.2802734375,-8.3681640625
0.1795,7.447265625,1.76171875,-9.048828125
0.18,6.5263671875,3.1630859375,-9.5693359375
0.1805,4.9248046875,4.96484375,-9.7294921875
0.181,3.1630859375,6.5263671875,-9.609375
0.1815,1.361328125,8.0478515625,-9.2490234375
0.182,-0.720703125,8.6083984375,-7.767578125
0.1825,-2.4423828125,9.3291015625,-6.88671875
0.183,-4.2041015625,9.609375,-5.4853515625
0.1835,-5.8857421875,9.7294921875,-3.923828125
0.184,-7.4072265625,9.4091796875,-2.2822265625
0.1845,-8.408203125,8.7685546875,-0.640625
0.185,-8.9287109375,7.3671875,1.28125
0.1855,-9.44921875,6.56640625,2.6826171875
0.186,-9.529296875,4.8046875,4.6044921875
0.1865,-9.4892578125,3.203125,6.1259765625
0.187,-9.208984375,1.28125,7.8076171875
0.1875,-8.16796875,-0.6005859375,8.6083984375
0.188,-7.046875,-2.3623046875,9.2490234375
0.1885,-6.1259765625,-3.84375,9.7294921875
0.189,-4.2841796875,-5.765625,9.849609375
0.1895,-2.642578125,-7.1669921875,9.609375
0.19,-0.720703125,-8.5283203125,9.0888671875
0.1905,1.3212890625,-9.048828125,7.6474609375
0.191,3.123046875,-9.8896484375,6.7265625
0.1915,5.0048828125,-10.1298828125,5.125
0.192,6.646484375,-10.169921875,3.5234375
0.1925,7.927734375,-9.8095703125,2.001953125
0.193,8.80859375,-9.0087890625,0.16015625
0.1935,9.3291015625,-7.6474609375,-1.5615234375
0.194,9.9296875,-6.6064453125,-3.203125
0.1945,9.9296875,-4.564453125,-5.205078125
0.195,9.76953125,-3.0830078125,-6.6064453125
0.1955,9.2890625,-1.1611328125,-8.0078125
0.196,8.16796875,0.720703125,-8.728515625
0.1965,7.046875,2.482421875,-9.3291015625
0.197,5.765625,4.1640625,-9.76953125
0.1975,3.84375,6.0458984375,-9.7294921875
0.198,2.2822265625,7.2470703125,-9.4091796875
0.1985,0.3203125,8.3681640625,-8.6083984375
0.199,-1.6416015625,8.9287109375,-7.20703125
0.1995,-3.4833984375,9.6494140625,-6.166015625
0.2,-5.3251953125,9.6494140625,-4.4443359375
0.2005,-6.806640625,9.5693359375,-2.9228515625
0.201,-7.767578125,9.0087890625,-1.4814453125
0.2015,-8.6884765625,8.0478515625,0.400390625
0.202,-9.048828125,6.7666015625,2.08203125
0.2025,-9.609375,5.60546875,3.84375
0.203,-9.4892578125,3.4833984375,5.8056640625
0.2035,-9.2490234375,2.1220703125,7.046875
0.204,-8.48828125,0.2802734375,8.1279296875
0.2045,-7.3671875,-1.5615234375,8.80859375
0.205,-6.326171875,-3.203125,9.4091796875
0.2055,-4.8447265625,-5.0048828125,9.6494140625
0.206,-3.04296875,-6.7265625,9.609375
0.2065,-1.4814453125,-7.7275390625,9.0087890625
0.207,0.560546875,-8.728515625,8.087890625
0.2075,2.4423828125,-9.2890625,6.806640625
0.208,4.2041015625,-10.08984375,5.765625
0.2085,6.0859375,-9.9697265625,3.923828125
0.209,7.3671875,-9.9296875,2.5625
0.2095,8.16796875,-9.048828125,1.0810546875
0.21,9.0087890625,-8.087890625,-0.80078125
0.2105,9.44921875,-6.806640625,-2.482421875
0.211,9.8896484375,-5.4853515625,-4.2041015625
0.2115,9.6494140625,-3.4033203125,-6.166015625
0.212,9.44921875,-2.08203125,-7.20703125
0.2125,8.4482421875,-0.080078125,-8.2880859375
0.213,7.3671875,1.76171875,-8.96875
0.2135,6.24609375,3.5234375,-9.609375
0.214,4.6044921875,5.2451171875,-9.689453125
0.2145,2.8427734375,7.0068359375,-9.6494140625
0.215,1.12109375,7.7275390625,-8.728515625
0.2155,-1.0009765625,8.80859375,-7.7275390625
0.216,-2.8427734375,9.2490234375,-6.4462890625
0.2165,-4.5244140625,9.76953125,-5.3251953125
0.217,-6.3662109375,9.609375,-3.4033203125
0.2175,-7.6474609375,9.4892578125,-2.001953125
0.218,-8.2080078125,8.2880859375,-0.2802734375
0.2185,-9.12890625,7.3671875,1.5615234375
0.219,-9.44921875,5.92578125,3.3232421875
0.2195,-9.6494140625,4.484375,5.044921875
0.22,-9.4892578125,2.3623046875,7.0068359375
0.2205,-8.9287109375,0.880859375,7.927734375
0.221,-7.7275390625,-1.1611328125,8.7685546875
0.2215,-6.6865234375,-2.8828125,9.44921875
0.222,-5.4052734375,-4.6044921875,9.8095703125
0.2225,-3.603515625,-6.326171875,9.7294921875
0.223,-1.8818359375,-7.927734375,9.609375
0.2235,0.0400390625,-8.5283203125,8.328125
0.224,2.0419921875,-9.4892578125,7.3271484375
0.2245,3.763671875,-9.8896484375,6.0458984375
0.225,5.4853515625,-10.2099609375,4.6044921875
0.2255,7.287109375,-9.9697265625,2.802734375
0.226,8.4482421875,-9.609375,1.3212890625
0.2265,8.9287109375,-8.248046875,-0.5205078125
0.227,9.689453125,-7.4072265625,-2.162109375
