wavelength,x,y,z
0.0,9.259033203125,-5.915771484375,-3.273193359375
0.0005,9.259033203125,-4.634521484375,-4.674560546875
0.001,8.898681640625,-2.872802734375,-6.035888671875
0.0015,8.177978515625,-1.231201171875,-6.956787109375
0.002,7.377197265625,0.530517578125,-7.877685546875
0.0025,6.095947265625,2.452392578125,-8.598388671875
0.003,4.774658203125,4.454345703125,-9.239013671875
0.0035,2.892822265625,5.815673828125,-8.758544921875
0.004,1.371337890625,7.257080078125,-8.638427734375
0.0045,-0.270263671875,8.017822265625,-7.837646484375
0.005,-1.911865234375,8.778564453125,-7.036865234375
0.0055,-3.833740234375,9.539306640625,-5.875732421875
0.006,-5.155029296875,9.499267578125,-4.554443359375
0.0065,-6.396240234375,9.018798828125,-2.952880859375
0.007,-7.357177734375,8.378173828125,-1.351318359375
0.0075,-8.077880859375,7.497314453125,0.290283203125
0.008,-8.678466796875,6.296142578125,2.092041015625
0.0085,-9.359130859375,5.094970703125,3.973876953125
0.009,-9.038818359375,3.573486328125,5.215087890625
0.0095,-8.638427734375,1.811767578125,6.576416015625
0.01,-7.717529296875,0.130126953125,7.377197265625
0.0105,-6.836669921875,-1.751708984375,8.218017578125
0.011,-5.435302734375,-3.793701171875,8.858642578125
0.0115,-3.873779296875,-5.515380859375,9.058837890625
0.012,-2.072021484375,-6.756591796875,8.618408203125
0.0125,-0.630615234375,-7.957763671875,8.338134765625
0.013,1.010986328125,-8.678466796875,7.497314453125
0.0135,2.652587890625,-9.319091796875,6.536376953125
0.014,4.574462890625,-9.999755859375,5.415283203125
0.0145,5.695556640625,-9.599365234375,3.893798828125
0.015,7.016845703125,-9.279052734375,2.412353515625
0.0155,7.657470703125,-8.358154296875,0.810791015625
0.016,8.338134765625,-7.517333984375,-0.790771484375
0.0165,8.938720703125,-6.316162109375,-2.592529296875
0.017,9.459228515625,-5.155029296875,-4.274169921875
0.0175,8.898681640625,-3.513427734375,-5.435302734375
0.018,8.498291015625,-1.871826171875,-6.716552734375
0.0185,7.537353515625,-0.230224609375,-7.437255859375
0.019,6.656494140625,1.571533203125,-8.278076171875
0.0195,5.295166015625,3.653564453125,-9.038818359375
0.02,3.693603515625,5.255126953125,-8.838623046875
0.0205,1.971923828125,6.616455078125,-8.598388671875
0.021,0.530517578125,7.617431640625,-8.077880859375
0.0215,-1.111083984375,8.378173828125,-7.357177734375
0.022,-2.832763671875,9.018798828125,-6.356201171875
0.0225,-4.514404296875,9.579345703125,-5.235107421875
0.023,-5.595458984375,8.978759765625,-3.633544921875
0.0235,-6.916748046875,8.698486328125,-2.112060546875
0.024,-7.517333984375,7.737548828125,-0.590576171875
0.0245,-8.278076171875,6.776611328125,1.131103515625
0.025,-8.958740234375,5.695556640625,2.972900390625
0.0255,-9.118896484375,4.414306640625,4.454345703125
0.026,-8.598388671875,2.692626953125,5.695556640625
0.0265,-8.037841796875,0.970947265625,6.776611328125
0.027,-7.237060546875,-0.710693359375,7.617431640625
0.0275,-6.115966796875,-2.552490234375,8.298095703125
0.028,-4.674560546875,-4.514404296875,8.938720703125
0.0285,-2.952880859375,-5.835693359375,8.498291015625
0.029,-1.471435546875,-7.237060546875,8.458251953125
0.0295,0.130126953125,-8.037841796875,7.737548828125
0.03,1.651611328125,-8.798583984375,6.976806640625
0.0305,3.453369140625,-9.519287109375,5.975830078125
0.031,4.854736328125,-9.679443359375,4.814697265625
0.0315,6.015869140625,-9.198974609375,3.213134765625
0.032,7.056884765625,-8.718505859375,1.771728515625
0.0325,7.697509765625,-7.837646484375,0.250244140625
0.033,8.418212890625,-6.916748046875,-1.471435546875
0.0335,9.098876953125,-5.835693359375,-3.233154296875
0.034,8.978759765625,-4.394287109375,-4.554443359375
0.0345,8.578369140625,-2.832763671875,-5.835693359375
0.035,7.857666015625,-1.191162109375,-6.756591796875
0.0355,7.096923828125,0.530517578125,-7.717529296875
0.036,6.015869140625,2.492431640625,-8.478271484375
0.0365,4.614501953125,4.334228515625,-8.878662109375
0.037,2.812744140625,5.615478515625,-8.398193359375
0.0375,1.411376953125,6.936767578125,-8.318115234375
0.038,-0.190185546875,7.737548828125,-7.637451171875
0.0385,-1.791748046875,8.458251953125,-6.836669921875
0.039,-3.593505859375,9.259033203125,-5.875732421875
0.0395,-4.834716796875,8.978759765625,-4.434326171875
0.04,-6.115966796875,8.778564453125,-2.952880859375
0.0405,-6.996826171875,8.057861328125,-1.431396484375
0.041,-7.757568359375,7.217041015625,0.250244140625
0.0415,-8.478271484375,6.216064453125,1.931884765625
0.042,-9.038818359375,5.094970703125,3.653564453125
0.0425,-8.638427734375,3.493408203125,4.854736328125
0.043,-8.318115234375,1.771728515625,6.256103515625
0.0435,-7.437255859375,0.130126953125,7.056884765625
0.044,-6.596435546875,-1.591552734375,7.937744140625
0.0445,-5.315185546875,-3.553466796875,8.618408203125
0.045,-3.793701171875,-5.155029296875,8.658447265625
0.0455,-2.112060546875,-6.476318359375,8.378173828125
0.046,-0.710693359375,-7.557373046875,8.017822265625
0.0465,0.930908203125,-8.318115234375,7.297119140625
0.047,2.532470703125,-9.078857421875,6.416259765625
0.0475,4.294189453125,-9.719482421875,5.415283203125
0.048,5.375244140625,-9.198974609375,3.853759765625
0.0485,6.656494140625,-8.998779296875,2.412353515625
0.049,7.377197265625,-8.157958984375,0.890869140625
0.0495,8.097900390625,-7.277099609375,-0.790771484375
0.05,8.818603515625,-6.276123046875,-2.512451171875
0.0505,9.098876953125,-5.074951171875,-4.073974609375
0.051,8.658447265625,-3.433349609375,-5.275146484375
0.0515,8.177978515625,-1.831787109375,-6.476318359375
0.052,7.377197265625,-0.150146484375,-7.277099609375
0.0525,6.416259765625,1.731689453125,-8.157958984375
0.053,5.135009765625,3.733642578125,-8.838623046875
0.0535,3.453369140625,5.135009765625,-8.558349609375
0.054,1.891845703125,6.576416015625,-8.478271484375
0.0545,0.370361328125,7.497314453125,-7.877685546875
0.055,-1.231201171875,8.298095703125,-7.116943359375
0.0555,-2.952880859375,9.018798828125,-6.236083984375
0.056,-4.514404296875,9.259033203125,-4.994873046875
0.0565,-5.635498046875,8.778564453125,-3.393310546875
0.057,-6.836669921875,8.378173828125,-1.871826171875
0.0575,-7.517333984375,7.497314453125,-0.310302734375
0.058,-8.278076171875,6.536376953125,1.411376953125
0.0585,-8.958740234375,5.415283203125,3.213134765625
0.059,-8.878662109375,3.973876953125,4.614501953125
0.0595,-8.478271484375,2.252197265625,5.895751953125
0.06,-7.757568359375,0.610595703125,6.896728515625
0.0605,-6.916748046875,-1.151123046875,7.737548828125
0.061,-5.755615234375,-2.952880859375,8.498291015625
0.0615,-4.234130859375,-4.914794921875,8.858642578125
0.062,-2.512451171875,-6.156005859375,8.418212890625
0.0625,-1.031005859375,-7.517333984375,8.298095703125
0.063,0.610595703125,-8.278076171875,7.497314453125
0.0635,2.212158203125,-8.998779296875,6.696533203125
0.064,3.973876953125,-9.759521484375,5.695556640625
0.0645,5.215087890625,-9.479248046875,4.294189453125
0.065,6.456298828125,-9.118896484375,2.732666015625
0.0655,7.377197265625,-8.478271484375,1.211181640625
0.066,8.017822265625,-7.517333984375,-0.510498046875
0.0665,8.698486328125,-6.596435546875,-2.112060546875
0.067,9.299072265625,-5.435302734375,-3.953857421875
0.0675,8.818603515625,-3.753662109375,-5.155029296875
0.068,8.458251953125,-2.072021484375,-6.396240234375
0.0685,7.617431640625,-0.390380859375,-7.237060546875
0.069,6.696533203125,1.411376953125,-8.077880859375
0.0695,5.495361328125,3.373291015625,-8.838623046875
0.07,3.853759765625,5.094970703125,-8.918701171875
0.0705,2.172119140625,6.376220703125,-8.478271484375
0.071,0.650634765625,7.537353515625,-8.197998046875
0.0715,-1.031005859375,8.258056640625,-7.317138671875
0.072,-2.672607421875,8.938720703125,-6.396240234375
0.0725,-4.434326171875,9.579345703125,-5.355224609375
0.073,-5.555419921875,8.978759765625,-3.713623046875
0.0735,-6.836669921875,8.698486328125,-2.192138671875
0.074,-7.557373046875,7.737548828125,-0.590576171875
0.0745,-8.197998046875,6.736572265625,1.131103515625
0.075,-8.918701171875,5.735595703125,2.852783203125
0.0755,-9.239013671875,4.334228515625,4.534423828125
0.076,-8.558349609375,2.612548828125,5.735595703125
0.0765,-8.157958984375,0.970947265625,7.016845703125
0.077,-7.076904296875,-0.830810546875,7.657470703125
0.0775,-6.115966796875,-2.592529296875,8.458251953125
0.078,-4.674560546875,-4.594482421875,8.978759765625
0.0785,-2.912841796875,-6.035888671875,8.658447265625
0.079,-1.351318359375,-7.317138671875,8.418212890625
0.0795,0.250244140625,-8.197998046875,7.777587890625
0.08,1.931884765625,-8.918701171875,6.856689453125
0.0805,3.573486328125,-9.559326171875,5.895751953125
0.081,5.094970703125,-9.839599609375,4.734619140625
0.0815,6.216064453125,-9.198974609375,3.052978515625
0.082,7.337158203125,-8.798583984375,1.571533203125
0.0825,7.897705078125,-7.837646484375,0.010009765625
0.083,8.578369140625,-6.876708984375,-1.711669921875
0.0835,9.259033203125,-5.835693359375,-3.473388671875
0.084,9.098876953125,-4.194091796875,-4.874755859375
0.0845,8.538330078125,-2.592529296875,-5.995849609375
0.085,7.897705078125,-0.910888671875,-7.076904296875
0.0855,6.896728515625,0.890869140625,-7.757568359375
0.086,5.935791015625,2.692626953125,-8.598388671875
0.0865,4.494384765625,4.574462890625,-8.958740234375
0.087,2.652587890625,5.855712890625,-8.518310546875
0.0875,1.211181640625,7.136962890625,-8.318115234375
0.088,-0.470458984375,7.977783203125,-7.557373046875
0.0885,-2.072021484375,8.658447265625,-6.716552734375
0.089,-3.753662109375,9.299072265625,-5.755615234375
0.0895,-5.074951171875,9.138916015625,-4.354248046875
0.09,-6.276123046875,8.698486328125,-2.752685546875
0.0905,-7.237060546875,8.057861328125,-1.231201171875
0.091,-7.837646484375,7.056884765625,0.450439453125
0.0915,-8.518310546875,6.135986328125,2.052001953125
0.092,-9.118896484375,5.094970703125,3.813720703125
0.0925,-8.638427734375,3.333251953125,5.094970703125
0.093,-8.318115234375,1.771728515625,6.336181640625
0.0935,-7.397216796875,0.010009765625,7.177001953125
0.094,-6.476318359375,-1.751708984375,7.977783203125
0.0945,-5.315185546875,-3.553466796875,8.578369140625
0.095,-3.753662109375,-5.235107421875,8.698486328125
0.0955,-2.112060546875,-6.476318359375,8.298095703125
0.096,-0.630615234375,-7.677490234375,8.017822265625
0.0965,1.010986328125,-8.358154296875,7.177001953125
0.097,2.572509765625,-9.038818359375,6.376220703125
0.0975,4.174072265625,-9.639404296875,5.415283203125
0.098,5.375244140625,-9.198974609375,3.893798828125
0.0985,6.536376953125,-8.958740234375,2.452392578125
0.099,7.337158203125,-8.197998046875,0.890869140625
0.0995,7.977783203125,-7.237060546875,-0.710693359375
0.1,8.698486328125,-6.396240234375,-2.272216796875
0.1005,9.098876953125,-5.114990234375,-3.953857421875
0.101,8.498291015625,-3.473388671875,-5.155029296875
0.1015,8.177978515625,-1.871826171875,-6.396240234375
0.102,7.297119140625,-0.150146484375,-7.197021484375
0.1025,6.456298828125,1.571533203125,-8.037841796875
0.103,5.255126953125,3.453369140625,-8.718505859375
0.1035,3.573486328125,5.014892578125,-8.518310546875
0.104,2.052001953125,6.296142578125,-8.318115234375
0.1045,0.530517578125,7.377197265625,-7.877685546875
0.105,-1.151123046875,8.097900390625,-7.076904296875
0.1055,-2.712646484375,8.818603515625,-6.276123046875
0.106,-4.274169921875,9.218994140625,-5.155029296875
0.1065,-5.435302734375,8.658447265625,-3.553466796875
0.107,-6.596435546875,8.298095703125,-2.072021484375
0.1075,-7.357177734375,7.417236328125,-0.510498046875
0.108,-8.117919921875,6.576416015625,1.211181640625
0.1085,-8.798583984375,5.655517578125,2.852783203125
0.109,-8.838623046875,4.174072265625,4.454345703125
0.1095,-8.318115234375,2.492431640625,5.615478515625
0.11,-7.797607421875,0.810791015625,6.776611328125
0.1105,-6.756591796875,-0.990966796875,7.497314453125
0.111,-5.875732421875,-2.712646484375,8.298095703125
0.1115,-4.434326171875,-4.554443359375,8.698486328125
0.112,-2.712646484375,-5.915771484375,8.378173828125
0.1125,-1.271240234375,-7.197021484375,8.177978515625
0.113,0.410400390625,-8.077880859375,7.537353515625
0.1135,2.052001953125,-8.838623046875,6.656494140625
0.114,3.653564453125,-9.479248046875,5.775634765625
0.1145,5.054931640625,-9.519287109375,4.494384765625
0.115,6.176025390625,-9.038818359375,2.892822265625
0.1155,7.217041015625,-8.558349609375,1.331298828125
0.116,7.817626953125,-7.477294921875,-0.310302734375
0.1165,8.618408203125,-6.676513671875,-1.951904296875
0.117,9.218994140625,-5.595458984375,-3.633544921875
0.1175,8.818603515625,-3.833740234375,-4.994873046875
0.118,8.418212890625,-2.272216796875,-6.196044921875
0.1185,7.697509765625,-0.510498046875,-7.197021484375
0.119,6.616455078125,1.411376953125,-7.997802734375
0.1195,5.615478515625,3.173095703125,-8.798583984375
0.12,3.973876953125,4.974853515625,-8.958740234375
0.1205,2.252197265625,6.296142578125,-8.518310546875
0.121,0.690673828125,7.537353515625,-8.238037109375
0.1215,-1.151123046875,8.298095703125,-7.317138671875
0.122,-2.792724609375,9.018798828125,-6.396240234375
0.1225,-4.434326171875,9.539306640625,-5.275146484375
0.123,-5.715576171875,9.098876953125,-3.753662109375
0.1235,-6.836669921875,8.618408203125,-2.152099609375
0.124,-7.797607421875,7.897705078125,-0.470458984375
0.1245,-8.358154296875,6.616455078125,1.451416015625
0.125,-9.078857421875,5.735595703125,3.093017578125
0.1255,-9.439208984375,4.374267578125,4.814697265625
0.126,-8.678466796875,2.412353515625,6.095947265625
0.1265,-8.278076171875,0.730712890625,7.337158203125
0.127,-7.076904296875,-1.271240234375,8.057861328125
0.1275,-5.835693359375,-3.233154296875,8.818603515625
0.128,-4.434326171875,-5.074951171875,9.218994140625
0.1285,-2.632568359375,-6.636474609375,9.018798828125
0.129,-0.950927734375,-7.797607421875,8.498291015625
0.1295,0.770751953125,-8.838623046875,7.937744140625
0.13,2.772705078125,-9.519287109375,6.616455078125
0.1305,4.414306640625,-10.119873046875,5.615478515625
0.131,5.935791015625,-10.320068359375,4.334228515625
0.1315,7.056884765625,-9.639404296875,2.612548828125
0.132,8.017822265625,-8.918701171875,0.970947265625
0.1325,8.738525390625,-7.797607421875,-0.950927734375
0.133,9.259033203125,-6.396240234375,-2.872802734375
0.1335,9.779541015625,-5.395263671875,-4.434326171875
0.134,9.739501953125,-3.713623046875,-6.035888671875
0.1345,8.778564453125,-1.791748046875,-7.076904296875
0.135,8.137939453125,0.050048828125,-8.157958984375
0.1355,6.616455078125,2.212158203125,-8.798583984375
0.136,5.335205078125,4.174072265625,-9.479248046875
0.1365,3.693603515625,5.935791015625,-9.639404296875
0.137,1.771728515625,7.377197265625,-9.118896484375
0.1375,0.090087890625,8.378173828125,-8.478271484375
0.138,-1.831787109375,9.299072265625,-7.557373046875
0.1385,-3.873779296875,9.819580078125,-6.156005859375
0.139,-5.435302734375,10.139892578125,-4.994873046875
0.1395,-6.796630859375,9.899658203125,-3.473388671875
0.14,-7.837646484375,9.098876953125,-1.631591796875
0.1405,-8.678466796875,8.298095703125,0.090087890625
0.141,-9.239013671875,6.776611328125,2.132080078125
0.1415,-9.719482421875,5.455322265625,3.973876953125
0.142,-9.919677734375,4.174072265625,5.455322265625
0.1425,-9.399169921875,2.252197265625,6.976806640625
0.143,-8.478271484375,0.330322265625,7.937744140625
0.1435,-7.517333984375,-1.591552734375,8.818603515625
0.144,-5.755615234375,-3.873779296875,9.339111328125
0.1445,-4.354248046875,-5.715576171875,9.739501953125
0.145,-2.512451171875,-7.317138671875,9.539306640625
0.1455,-0.710693359375,-8.398193359375,8.898681640625
0.146,0.970947265625,-9.319091796875,8.177978515625
0.1465,2.932861328125,-10.039794921875,6.936767578125
0.147,4.854736328125,-10.520263671875,5.575439453125
0.1475,6.216064453125,-10.600341796875,4.334228515625
0.148,7.497314453125,-10.079833984375,2.692626953125
0.1485,8.258056640625,-9.118896484375,0.970947265625
0.149,9.018798828125,-8.197998046875,-0.790771484375
0.1495,9.419189453125,-6.596435546875,-2.712646484375
0.15,9.859619140625,-5.475341796875,-4.354248046875
0.1505,9.899658203125,-4.114013671875,-5.755615234375
0.151,9.098876953125,-2.112060546875,-7.036865234375
0.1515,8.258056640625,-0.430419921875,-7.877685546875
0.152,7.136962890625,1.571533203125,-8.678466796875
0.1525,5.615478515625,3.693603515625,-9.279052734375
0.153,4.334228515625,5.255126953125,-9.519287109375
0.1535,2.412353515625,6.816650390625,-9.239013671875
0.154,0.770751953125,7.857666015625,-8.598388671875
0.1545,-0.870849609375,8.778564453125,-7.877685546875
0.155,-2.792724609375,9.259033203125,-6.676513671875
0.1555,-4.434326171875,9.779541015625,-5.475341796875
0.156,-5.715576171875,9.739501953125,-4.314208984375
0.1565,-6.836669921875,9.178955078125,-2.632568359375
0.157,-7.717529296875,8.378173828125,-1.071044921875
0.1575,-8.438232421875,7.417236328125,0.690673828125
0.158,-8.878662109375,6.055908203125,2.532470703125
0.1585,-9.359130859375,5.135009765625,3.933837890625
0.159,-9.279052734375,3.613525390625,5.415283203125
0.1595,-8.478271484375,1.731689453125,6.536376953125
0.16,-7.837646484375,0.050048828125,7.577392578125
0.1605,-6.556396484375,-1.871826171875,8.177978515625
0.161,-5.435302734375,-3.673583984375,8.818603515625
0.1615,-3.993896484375,-5.155029296875,8.978759765625
0.162,-2.312255859375,-6.636474609375,8.658447265625
0.1625,-0.830810546875,-7.637451171875,8.218017578125
0.163,0.850830078125,-8.638427734375,7.537353515625
0.1635,2.452392578125,-9.158935546875,6.496337890625
0.164,3.933837890625,-9.639404296875,5.655517578125
0.1645,5.175048828125,-9.559326171875,4.374267578125
0.165,6.296142578125,-9.078857421875,2.852783203125
0.1655,7.217041015625,-8.438232421875,1.331298828125
0.166,7.857666015625,-7.517333984375,-0.310302734375
0.1665,8.538330078125,-6.596435546875,-1.911865234375
0.167,9.018798828125,-5.755615234375,-3.233154296875
0.1675,8.858642578125,-4.114013671875,-4.754638671875
0.168,8.298095703125,-2.552490234375,-5.755615234375
0.1685,7.737548828125,-0.790771484375,-6.956787109375
0.169,6.656494140625,0.970947265625,-7.637451171875
0.1695,5.855712890625,2.692626953125,-8.478271484375
0.17,4.414306640625,4.174072265625,-8.558349609375
0.1705,2.732666015625,5.495361328125,-8.398193359375
0.171,1.371337890625,6.696533203125,-8.037841796875
0.1715,-0.270263671875,7.537353515625,-7.557373046875
0.172,-1.871826171875,8.378173828125,-6.676513671875
0.1725,-3.193115234375,8.898681640625,-5.915771484375
0.173,-4.514404296875,8.778564453125,-4.514404296875
0.1735,-5.635498046875,8.418212890625,-3.072998046875
0.174,-6.756591796875,7.937744140625,-1.511474609375
0.1745,-7.357177734375,6.976806640625,0.130126953125
0.175,-8.278076171875,6.336181640625,1.651611328125
0.1755,-8.678466796875,5.295166015625,3.052978515625
0.176,-8.318115234375,3.573486328125,4.534423828125
0.1765,-7.997802734375,2.052001953125,5.695556640625
0.177,-7.317138671875,0.330322265625,6.776611328125
0.1775,-6.396240234375,-1.431396484375,7.577392578125
0.178,-5.475341796875,-3.072998046875,8.258056640625
0.1785,-3.993896484375,-4.754638671875,8.218017578125
0.179,-2.472412109375,-5.955810546875,8.137939453125
0.1795,-0.990966796875,-7.116943359375,7.817626953125
0.18,0.610595703125,-7.877685546875,7.136962890625
0.1805,2.172119140625,-8.798583984375,6.496337890625
0.181,3.373291015625,-9.118896484375,5.655517578125
0.1815,4.814697265625,-8.958740234375,4.134033203125
0.182,5.815673828125,-8.598388671875,2.772705078125
0.1825,6.896728515625,-8.037841796875,1.211181640625
0.183,7.617431640625,-7.197021484375,-0.390380859375
0.1835,8.498291015625,-6.596435546875,-1.871826171875
0.184,8.698486328125,-5.315185546875,-3.353271484375
0.1845,8.298095703125,-3.713623046875,-4.634521484375
0.185,7.937744140625,-2.072021484375,-5.915771484375
0.1855,7.217041015625,-0.430419921875,-6.836669921875
0.186,6.416259765625,1.411376953125,-7.837646484375
0.1865,5.255126953125,2.852783203125,-8.398193359375
0.187,3.693603515625,4.614501953125,-8.318115234375
0.1875,2.292236328125,5.815673828125,-8.157958984375
0.188,0.730712890625,7.056884765625,-7.757568359375
