wavelength,x,y,z
0.0,-17.79736328125,25.40478515625,-8.10791015625
0.0005,-21.48095703125,24.48388671875,-3.54345703125
0.001,-24.04345703125,21.64111328125,1.78173828125
0.0015,-26.48583984375,19.55908203125,6.26611328125
0.002,-26.76611328125,14.95458984375,11.11083984375
0.0025,-26.64599609375,10.10986328125,15.87548828125
0.003,-25.96533203125,6.58642578125,18.75830078125
0.0035,-23.56298828125,0.62060546875,22.28173828125
0.004,-21.32080078125,-4.14404296875,24.72412109375
0.0045,-18.75830078125,-8.70849609375,26.64599609375
0.005,-14.07373046875,-14.39404296875,27.56689453125
0.0055,-8.82861328125,-18.07763671875,26.00537109375
0.006,-5.06494140625,-21.20068359375,25.36474609375
0.0065,1.46142578125,-24.04345703125,21.80126953125
0.007,6.02587890625,-26.48583984375,19.87939453125
0.0075,10.95068359375,-26.56591796875,15.15478515625
0.008,16.15576171875,-27.16650390625,10.71044921875
0.0085,19.23876953125,-25.76513671875,6.38623046875
0.009,22.92236328125,-24.08349609375,1.10107421875
0.0095,25.24462890625,-21.16064453125,-4.18408203125
0.01,27.24658203125,-18.83837890625,-8.58837890625
0.0105,26.92626953125,-13.51318359375,-13.47314453125
0.011,26.40576171875,-8.82861328125,-17.67724609375
0.0115,25.56494140625,-5.26513671875,-20.35986328125
0.012,22.76220703125,0.98095703125,-23.68310546875
0.0125,20.56005859375,5.54541015625,-26.08544921875
0.013,16.83642578125,10.43017578125,-27.16650390625
0.0135,12.31201171875,15.55517578125,-27.68701171875
0.014,7.18701171875,19.03857421875,-26.00537109375
0.0145,2.58251953125,22.00146484375,-24.44384765625
0.015,-3.46337890625,24.48388671875,-21.12060546875
0.0155,-7.82763671875,26.84619140625,-19.15869140625
0.016,-12.95263671875,26.12548828125,-13.47314453125
0.0165,-17.27685546875,26.24560546875,-9.46923828125
0.017,-20.19970703125,25.00439453125,-5.42529296875
0.0175,-23.56298828125,22.68212890625,0.22021484375
0.018,-25.48486328125,19.79931640625,4.98486328125
0.0185,-26.96630859375,16.79638671875,9.54931640625
0.019,-26.60595703125,11.79150390625,14.23388671875
0.0195,-25.68505859375,7.14697265625,17.95751953125
0.02,-24.52392578125,3.34326171875,20.56005859375
0.0205,-21.80126953125,-2.70263671875,23.76318359375
0.021,-19.87939453125,-7.18701171875,26.24560546875
0.0215,-15.11474609375,-12.19189453125,26.32568359375
0.022,-11.23095703125,-16.51611328125,26.84619140625
0.0225,-6.38623046875,-19.71923828125,25.24462890625
0.023,-1.34130859375,-22.52197265625,23.08251953125
0.0235,4.14404296875,-24.80419921875,19.99951171875
0.024,8.94873046875,-26.92626953125,17.47705078125
0.0245,13.91357421875,-26.12548828125,11.87158203125
0.025,17.71728515625,-25.92529296875,8.02783203125
0.0255,20.52001953125,-24.64404296875,3.94384765625
0.026,23.92333984375,-22.28173828125,-1.82177734375
0.0265,25.76513671875,-19.43896484375,-6.38623046875
0.027,26.60595703125,-15.39501953125,-11.27099609375
0.0275,26.40576171875,-10.91064453125,-15.55517578125
0.028,25.24462890625,-6.26611328125,-19.03857421875
0.0285,23.60302734375,-2.18212890625,-21.48095703125
0.029,21.08056640625,3.54345703125,-24.56396484375
0.0295,18.71826171875,8.58837890625,-27.16650390625
0.03,13.27294921875,13.47314453125,-26.60595703125
0.0305,9.74951171875,17.35693359375,-26.88623046875
0.031,4.74462890625,20.31982421875,-24.84423828125
0.0315,-0.90087890625,23.32275390625,-22.36181640625
0.032,-5.62548828125,25.16455078125,-19.63916015625
0.0325,-11.39111328125,26.88623046875,-15.71533203125
0.033,-15.55517578125,25.80517578125,-10.75048828125
0.0335,-19.23876953125,25.32470703125,-6.66650390625
0.034,-21.80126953125,23.40283203125,-2.30224609375
0.0345,-25.04443359375,20.96044921875,3.46337890625
0.035,-26.60595703125,17.95751953125,8.02783203125
0.0355,-26.68603515625,13.03271484375,12.99267578125
0.036,-26.52587890625,9.26904296875,16.67626953125
0.0365,-24.96435546875,4.26416015625,20.03955078125
0.037,-22.92236328125,-0.38037109375,22.56201171875
0.0375,-20.56005859375,-5.42529296875,25.20458984375
0.038,-17.15673828125,-11.11083984375,27.40673828125
0.0385,-11.67138671875,-15.51513671875,26.28564453125
0.039,-8.30810546875,-19.03857421875,26.36572265625
0.0395,-2.86279296875,-21.68115234375,23.68310546875
0.04,2.90283203125,-24.76416015625,21.16064453125
0.0405,7.18701171875,-26.20556640625,18.43798828125
0.041,13.39306640625,-27.40673828125,13.59326171875
0.0415,16.87646484375,-26.20556640625,9.10888671875
0.042,20.60009765625,-25.52490234375,4.70458984375
0.0425,23.08251953125,-23.04248046875,-0.10009765625
0.043,25.88525390625,-20.64013671875,-5.26513671875
0.0435,27.08642578125,-16.95654296875,-10.22998046875
0.044,26.64599609375,-11.67138671875,-15.07470703125
0.0445,26.44580078125,-8.34814453125,-18.19775390625
0.045,24.28369140625,-2.90283203125,-21.44091796875
0.0455,22.08154296875,2.06201171875,-24.16357421875
0.046,19.75927734375,6.54638671875,-26.20556640625
0.0465,15.51513671875,12.71240234375,-28.04736328125
0.047,9.98974609375,16.59619140625,-26.40576171875
0.0475,6.54638671875,19.99951171875,-26.32568359375
0.048,0.66064453125,22.44189453125,-23.00244140625
0.0485,-4.62451171875,25.32470703125,-20.76025390625
0.049,-9.18896484375,26.24560546875,-17.31689453125
0.0495,-14.95458984375,26.80615234375,-12.31201171875
0.05,-17.99755859375,25.64501953125,-8.30810546875
0.0505,-21.64111328125,24.36376953125,-3.26318359375
0.051,-23.96337890625,21.76123046875,1.58154296875
0.0515,-26.12548828125,19.43896484375,6.06591796875
0.052,-27.08642578125,15.03466796875,11.47119140625
0.0525,-26.20556640625,9.78955078125,15.75537109375
0.053,-26.00537109375,6.66650390625,18.75830078125
0.0535,-23.24267578125,0.78076171875,21.80126953125
0.054,-21.32080078125,-3.98388671875,24.60400390625
0.0545,-18.55810546875,-8.38818359375,26.12548828125
0.055,-14.07373046875,-14.27392578125,27.44677734375
0.0555,-9.10888671875,-17.55712890625,25.76513671875
0.056,-5.02490234375,-20.96044921875,25.08447265625
0.0565,0.74072265625,-23.20263671875,21.76123046875
0.057,5.38525390625,-25.88525390625,19.87939453125
0.0575,10.51025390625,-26.36572265625,15.35498046875
0.058,15.59521484375,-26.56591796875,10.55029296875
0.0585,18.55810546875,-25.72509765625,7.02685546875
0.059,22.20166015625,-23.68310546875,1.42138671875
0.0595,24.52392578125,-21.16064453125,-3.38330078125
0.06,26.24560546875,-18.75830078125,-7.54736328125
0.0605,26.92626953125,-13.95361328125,-13.11279296875
0.061,25.76513671875,-9.02880859375,-16.83642578125
0.0615,25.48486328125,-5.62548828125,-19.91943359375
0.062,22.52197265625,0.34033203125,-22.84228515625
0.0625,20.80029296875,4.94482421875,-25.64501953125
0.063,16.99658203125,9.70947265625,-26.60595703125
0.0635,12.51220703125,15.23486328125,-27.52685546875
0.064,7.86767578125,18.39794921875,-26.08544921875
0.0645,2.82275390625,21.76123046875,-24.36376953125
0.065,-2.78271484375,23.96337890625,-21.16064453125
0.0655,-7.26708984375,26.40576171875,-19.31884765625
0.066,-12.79248046875,26.32568359375,-13.99365234375
0.0665,-17.15673828125,26.08544921875,-9.38916015625
0.067,-20.15966796875,25.32470703125,-5.78564453125
0.0675,-23.64306640625,22.76220703125,0.18017578125
0.068,-25.76513671875,20.11962890625,5.02490234375
0.0685,-26.92626953125,16.79638671875,9.46923828125
0.069,-27.40673828125,12.11181640625,14.71435546875
0.0695,-25.96533203125,7.18701171875,18.15771484375
0.07,-25.04443359375,3.18310546875,21.28076171875
0.0705,-21.96142578125,-2.94287109375,24.16357421875
0.071,-20.19970703125,-7.58740234375,26.96630859375
0.0715,-15.23486328125,-12.67236328125,26.96630859375
0.072,-10.91064453125,-17.43701171875,27.44677734375
0.0725,-6.38623046875,-20.35986328125,25.84521484375
0.073,-0.62060546875,-23.68310546875,23.36279296875
0.0735,4.86474609375,-25.64501953125,20.15966796875
0.074,9.78955078125,-27.72705078125,17.31689453125
0.0745,14.99462890625,-27.20654296875,11.91162109375
0.075,18.87841796875,-26.36572265625,7.38720703125
0.0755,21.72119140625,-25.24462890625,3.46337890625
0.076,25.00439453125,-22.48193359375,-2.58251953125
0.0765,26.96630859375,-19.59912109375,-7.42724609375
0.077,27.28662109375,-15.07470703125,-12.27197265625
0.0775,27.48681640625,-10.75048828125,-16.79638671875
0.078,25.76513671875,-5.86572265625,-19.95947265625
0.0785,24.16357421875,-1.42138671875,-22.76220703125
0.079,21.12060546875,4.38427734375,-25.44482421875
0.0795,18.83837890625,9.34912109375,-28.04736328125
0.08,13.19287109375,14.35400390625,-27.36669921875
0.0805,9.14892578125,18.43798828125,-27.32666015625
0.081,4.62451171875,21.00048828125,-25.44482421875
0.0815,-1.54150390625,24.16357421875,-22.64208984375
0.082,-6.26611328125,25.76513671875,-19.71923828125
0.0825,-11.83154296875,27.12646484375,-15.55517578125
0.083,-16.15576171875,26.64599609375,-10.95068359375
0.0835,-19.75927734375,25.48486328125,-6.34619140625
0.084,-22.16162109375,23.84326171875,-2.30224609375
0.0845,-25.28466796875,21.00048828125,3.58349609375
0.085,-27.04638671875,18.19775390625,8.18798828125
0.0855,-26.64599609375,12.99267578125,13.03271484375
0.086,-26.96630859375,9.26904296875,17.03662109375
0.0865,-25.12451171875,4.50439453125,19.99951171875
0.087,-23.16259765625,-0.38037109375,22.88232421875
0.0875,-20.52001953125,-5.42529296875,25.20458984375
0.088,-17.31689453125,-10.91064453125,27.40673828125
0.0885,-12.07177734375,-15.39501953125,26.56591796875
0.089,-8.10791015625,-19.15869140625,26.28564453125
0.0895,-3.58349609375,-21.36083984375,24.04345703125
0.09,2.50244140625,-24.64404296875,21.32080078125
0.0905,6.90673828125,-26.12548828125,18.63818359375
0.091,12.87255859375,-26.84619140625,13.55322265625
0.0915,16.55615234375,-26.52587890625,9.74951171875
0.092,20.19970703125,-25.32470703125,5.02490234375
0.0925,22.72216796875,-23.32275390625,0.54052734375
0.093,25.36474609375,-20.72021484375,-4.74462890625
0.0935,27.20654296875,-17.31689453125,-9.94970703125
0.094,26.36572265625,-11.83154296875,-14.59423828125
0.0945,26.60595703125,-8.54833984375,-18.19775390625
0.095,24.40380859375,-3.54345703125,-21.00048828125
0.0955,22.40185546875,1.78173828125,-24.16357421875
0.096,19.83935546875,6.46630859375,-26.20556640625
0.0965,15.63525390625,12.55224609375,-28.00732421875
0.097,10.59033203125,16.47607421875,-26.92626953125
0.0975,6.42626953125,20.15966796875,-26.40576171875
0.098,1.18115234375,22.28173828125,-23.44287109375
0.0985,-4.50439453125,25.44482421875,-21.04052734375
0.099,-9.46923828125,26.72607421875,-17.43701171875
0.0995,-15.15478515625,26.88623046875,-12.15185546875
0.1,-18.31787109375,26.40576171875,-8.58837890625
0.1005,-22.00146484375,24.60400390625,-3.22314453125
0.101,-24.48388671875,22.08154296875,1.74169921875
0.1015,-26.52587890625,19.51904296875,6.38623046875
0.102,-27.92724609375,15.07470703125,12.19189453125
0.1025,-26.72607421875,9.70947265625,16.35595703125
0.103,-26.64599609375,6.38623046875,19.63916015625
0.1035,-23.72314453125,0.78076171875,22.36181640625
0.104,-21.80126953125,-4.42431640625,25.44482421875
0.1045,-18.55810546875,-9.18896484375,26.92626953125
0.105,-13.79345703125,-15.23486328125,28.08740234375
0.1055,-9.22900390625,-18.51806640625,26.72607421875
0.106,-4.42431640625,-22.08154296875,25.48486328125
0.1065,1.22119140625,-24.04345703125,22.08154296875
0.107,6.10595703125,-26.64599609375,19.91943359375
0.1075,11.79150390625,-27.40673828125,15.23486328125
0.108,16.71630859375,-27.04638671875,10.06982421875
0.1085,19.67919921875,-26.60595703125,6.86669921875
0.109,23.20263671875,-24.12353515625,0.90087890625
0.1095,25.60498046875,-21.56103515625,-4.06396484375
0.11,26.96630859375,-18.63818359375,-8.30810546875
0.1105,27.92724609375,-13.79345703125,-14.23388671875
0.111,26.44580078125,-8.74853515625,-17.79736328125
0.1115,26.00537109375,-5.10498046875,-21.00048828125
0.112,22.84228515625,0.62060546875,-23.40283203125
0.1125,21.12060546875,5.30517578125,-26.32568359375
0.113,16.95654296875,10.31005859375,-27.16650390625
0.1135,12.11181640625,15.87548828125,-27.80712890625
0.114,8.06787109375,18.83837890625,-26.76611328125
0.1145,2.46240234375,22.24169921875,-24.52392578125
0.115,-2.86279296875,24.20361328125,-21.40087890625
0.1155,-7.30712890625,26.44580078125,-19.27880859375
0.116,-13.19287109375,26.88623046875,-14.03369140625
0.1165,-17.31689453125,25.92529296875,-9.10888671875
0.117,-20.35986328125,25.64501953125,-5.90576171875
0.1175,-23.48291015625,22.72216796875,0.14013671875
0.118,-25.68505859375,20.27978515625,4.74462890625
0.1185,-26.48583984375,16.79638671875,8.98876953125
0.119,-27.32666015625,12.15185546875,14.55419921875
0.1195,-25.88525390625,7.54736328125,17.71728515625
0.12,-24.92431640625,3.34326171875,20.96044921875
0.1205,-21.84130859375,-2.22216796875,23.36279296875
0.121,-20.27978515625,-6.78662109375,26.24560546875
0.1215,-15.39501953125,-11.95166015625,26.52587890625
0.122,-10.87060546875,-16.79638671875,26.60595703125
0.1225,-7.26708984375,-19.51904296875,25.88525390625
0.123,-1.22119140625,-22.68212890625,23.08251953125
0.1235,3.70361328125,-24.64404296875,20.23974609375
0.124,8.30810546875,-26.36572265625,17.47705078125
0.1245,13.99365234375,-26.84619140625,12.51220703125
0.125,17.67724609375,-25.60498046875,7.74755859375
0.1255,20.76025390625,-25.04443359375,4.18408203125
0.126,23.76318359375,-22.16162109375,-1.62158203125
0.1265,26.00537109375,-19.87939453125,-6.14599609375
0.127,26.16552734375,-15.39501953125,-10.83056640625
0.1275,26.88623046875,-11.11083984375,-15.83544921875
0.128,25.56494140625,-6.78662109375,-18.83837890625
0.1285,23.96337890625,-2.06201171875,-21.92138671875
0.129,21.08056640625,3.18310546875,-24.24365234375
0.1295,19.03857421875,7.98779296875,-26.92626953125
0.13,13.79345703125,13.19287109375,-26.92626953125
0.1305,9.22900390625,17.55712890625,-26.56591796875
0.131,5.42529296875,20.23974609375,-25.52490234375
0.1315,-0.98095703125,23.44287109375,-22.40185546875
0.132,-5.50537109375,25.32470703125,-19.87939453125
0.1325,-10.91064453125,26.28564453125,-15.59521484375
0.133,-15.67529296875,26.64599609375,-11.39111328125
0.1335,-19.23876953125,25.24462890625,-6.54638671875
0.134,-22.04150390625,23.92333984375,-2.54248046875
0.1345,-24.84423828125,20.96044921875,3.22314453125
0.135,-26.88623046875,18.39794921875,7.82763671875
0.1355,-26.40576171875,13.11279296875,12.67236328125
0.136,-26.88623046875,9.26904296875,16.99658203125
0.1365,-25.32470703125,4.82470703125,19.87939453125
0.137,-23.20263671875,-0.58056640625,23.04248046875
0.1375,-20.47998046875,-5.46533203125,25.12451171875
0.138,-17.31689453125,-10.91064453125,27.28662109375
0.1385,-12.31201171875,-15.51513671875,26.92626953125
0.139,-7.78759765625,-19.35888671875,26.20556640625
0.1395,-3.54345703125,-21.68115234375,24.40380859375
0.14,2.78271484375,-24.80419921875,21.28076171875
0.1405,7.30712890625,-26.52587890625,18.63818359375
0.141,13.15283203125,-26.76611328125,13.27294921875
0.1415,17.03662109375,-26.88623046875,9.62939453125
0.142,20.56005859375,-25.44482421875,4.74462890625
0.1425,23.32275390625,-23.40283203125,0.10009765625
0.143,25.60498046875,-20.47998046875,-5.14501953125
0.1435,27.36669921875,-17.23681640625,-10.18994140625
0.144,26.40576171875,-11.67138671875,-14.83447265625
0.1445,26.48583984375,-8.06787109375,-18.51806640625
0.145,24.60400390625,-3.62353515625,-21.08056640625
0.1455,22.32177734375,1.94189453125,-24.28369140625
0.146,19.51904296875,6.58642578125,-26.12548828125
0.1465,15.23486328125,12.51220703125,-27.56689453125
0.147,10.71044921875,16.47607421875,-26.96630859375
0.1475,6.10595703125,20.03955078125,-25.92529296875
0.148,1.34130859375,22.16162109375,-23.40283203125
0.1485,-4.22412109375,24.92431640625,-20.72021484375
0.149,-9.22900390625,26.52587890625,-17.47705078125
0.1495,-14.51416015625,26.08544921875,-11.91162109375
0.15,-17.91748046875,26.04541015625,-8.66845703125
0.1505,-21.12060546875,24.20361328125,-3.70361328125
0.151,-23.84326171875,22.04150390625,1.22119140625
0.1515,-25.56494140625,19.23876953125,5.70556640625
0.152,-27.04638671875,15.23486328125,11.19091796875
0.1525,-26.00537109375,10.14990234375,15.31494140625
0.153,-25.84521484375,6.42626953125,18.79833984375
0.1535,-23.60302734375,1.78173828125,21.12060546875
0.154,-21.64111328125,-3.50341796875,24.36376953125
0.1545,-18.51806640625,-8.30810546875,26.04541015625
0.155,-13.75341796875,-13.95361328125,26.76611328125
0.1555,-9.94970703125,-17.35693359375,26.40576171875
0.156,-4.98486328125,-20.80029296875,24.88427734375
0.1565,0.06005859375,-23.00244140625,22.16162109375
0.157,4.82470703125,-25.32470703125,19.87939453125
0.1575,10.63037109375,-26.80615234375,15.67529296875
0.158,15.35498046875,-26.00537109375,10.39013671875
0.1585,18.71826171875,-26.12548828125,7.22705078125
0.159,21.92138671875,-23.88330078125,1.94189453125
0.1595,24.72412109375,-21.64111328125,-3.14306640625
0.16,26.04541015625,-18.67822265625,-7.38720703125
0.1605,27.12646484375,-13.95361328125,-13.23291015625
0.161,26.12548828125,-9.42919921875,-16.83642578125
0.1615,25.52490234375,-5.26513671875,-20.35986328125
0.162,22.88232421875,-0.18017578125,-22.72216796875
0.1625,21.00048828125,4.70458984375,-25.64501953125
0.163,16.99658203125,10.06982421875,-26.96630859375
0.1635,11.87158203125,15.39501953125,-27.08642578125
0.164,8.38818359375,18.55810546875,-26.76611328125
0.1645,2.54248046875,21.96142578125,-24.32373046875
0.165,-2.70263671875,24.16357421875,-21.48095703125
0.1655,-6.98681640625,25.96533203125,-19.15869140625
0.166,-13.15283203125,26.92626953125,-14.11376953125
0.1665,-17.15673828125,25.64501953125,-9.06884765625
0.167,-20.47998046875,25.48486328125,-5.58544921875
0.1675,-23.40283203125,22.72216796875,0.06005859375
0.168,-25.88525390625,20.23974609375,4.94482421875
0.1685,-26.44580078125,16.55615234375,9.26904296875
0.169,-27.16650390625,11.71142578125,14.75439453125
0.1695,-26.12548828125,7.50732421875,17.95751953125
0.17,-24.72412109375,2.74267578125,21.32080078125
0.1705,-22.00146484375,-2.42236328125,23.68310546875
0.171,-20.15966796875,-6.90673828125,26.24560546875
0.1715,-15.39501953125,-12.43212890625,26.92626953125
0.172,-10.31005859375,-17.03662109375,26.48583984375
0.1725,-7.06689453125,-19.99951171875,26.12548828125
0.173,-0.82080078125,-23.04248046875,23.04248046875
0.1735,4.18408203125,-25.20458984375,20.35986328125
0.174,8.62841796875,-26.32568359375,17.23681640625
0.1745,14.47412109375,-27.20654296875,12.35205078125
0.175,17.91748046875,-25.64501953125,7.58740234375
0.1755,21.32080078125,-25.00439453125,3.58349609375
0.176,23.96337890625,-22.20166015625,-1.82177734375
0.1765,26.24560546875,-19.87939453125,-6.38623046875
0.177,26.20556640625,-15.39501953125,-10.99072265625
0.1775,26.60595703125,-10.75048828125,-15.99560546875
0.178,25.68505859375,-7.06689453125,-19.03857421875
0.1785,23.68310546875,-1.58154296875,-22.12158203125
0.179,21.12060546875,3.30322265625,-24.36376953125
0.1795,18.83837890625,7.86767578125,-26.60595703125
0.18,13.95361328125,13.31298828125,-27.08642578125
0.1805,8.94873046875,17.35693359375,-26.12548828125
0.181,5.42529296875,20.23974609375,-25.48486328125
0.1815,-0.98095703125,23.16259765625,-22.16162109375
0.182,-5.30517578125,25.24462890625,-19.99951171875
0.1825,-10.27001953125,25.60498046875,-15.51513671875
0.183,-15.39501953125,26.40576171875,-11.47119140625
0.1835,-18.63818359375,25.00439453125,-6.90673828125
0.184,-21.84130859375,23.68310546875,-2.42236328125
0.1845,-24.28369140625,20.80029296875,2.82275390625
0.185,-26.28564453125,18.51806640625,7.18701171875
0.1855,-25.96533203125,13.39306640625,11.91162109375
0.186,-26.12548828125,8.94873046875,16.35595703125
0.1865,-25.24462890625,5.42529296875,19.23876953125
0.187,-22.80224609375,-0.46044921875,22.52197265625
0.1875,-20.56005859375,-4.86474609375,24.64404296875
0.188,-17.15673828125,-9.90966796875,26.24560546875
0.1885,-12.75244140625,-14.83447265625,26.72607421875
0.189,-7.86767578125,-18.55810546875,25.52490234375
0.1895,-3.86376953125,-21.20068359375,24.20361328125
0.19,2.30224609375,-24.00341796875,21.00048828125
0.1905,6.62646484375,-26.12548828125,18.91845703125
