wavelength,x,y,z
0.0,-19.859375,-0.8408203125,19.5791015625
0.0005,-17.296875,-5.044921875,21.3408203125
0.001,-14.6943359375,-8.0078125,21.8212890625
0.0015,-11.611328125,-11.2509765625,22.1416015625
0.002,-6.7265625,-15.2548828125,21.3408203125
0.0025,-2.2021484375,-18.09765625,19.859375
0.003,2.642578125,-20.3798828125,17.537109375
0.0035,6.56640625,-21.8212890625,15.375
0.004,9.5693359375,-21.6611328125,12.4521484375
0.0045,12.732421875,-21.7412109375,9.4091796875
0.005,16.65625,-20.66015625,4.9248046875
0.0055,19.458984375,-18.9384765625,0.400390625
0.006,21.1806640625,-16.65625,-3.6435546875
0.0065,21.94140625,-14.1337890625,-6.966796875
0.007,21.9814453125,-10.890625,-10.25
0.0075,21.5810546875,-6.56640625,-14.173828125
0.008,20.5400390625,-2.7626953125,-17.0166015625
0.0085,18.8984375,1.5615234375,-19.619140625
0.009,16.4560546875,5.4453125,-21.3408203125
0.0095,13.373046875,8.4482421875,-21.4208984375
0.01,10.3701171875,11.8115234375,-21.6611328125
0.0105,5.125,15.9755859375,-20.66015625
0.011,0.48046875,18.7783203125,-19.0185546875
0.0115,-3.763671875,20.5,-16.81640625
0.012,-7.1669921875,21.62109375,-14.6943359375
0.0125,-10.3701171875,21.4609375,-11.5712890625
0.013,-13.93359375,21.1005859375,-7.927734375
0.0135,-17.056640625,20.2197265625,-3.9638671875
0.014,-19.859375,18.09765625,0.7607421875
0.0145,-21.4208984375,15.7353515625,4.6044921875
0.015,-21.7412109375,12.97265625,7.6875
0.0155,-21.9013671875,9.849609375,11.0107421875
0.016,-21.1005859375,5.044921875,15.2548828125
0.0165,-20.0595703125,1.041015625,17.9775390625
0.017,-18.09765625,-2.8828125,20.01953125
0.0175,-15.85546875,-6.56640625,21.62109375
0.018,-12.5322265625,-9.689453125,21.4208984375
0.0185,-8.96875,-13.0927734375,21.3408203125
0.019,-4.1640625,-16.736328125,20.33984375
0.0195,1.0810546875,-19.458984375,18.2177734375
0.02,4.9248046875,-20.8203125,15.9755859375
0.0205,8.0078125,-21.5009765625,13.693359375
0.021,11.2509765625,-21.4609375,10.73046875
0.0215,15.0947265625,-20.5,6.2060546875
0.022,17.8974609375,-19.5390625,2.4423828125
0.0225,20.2197265625,-17.3369140625,-2.08203125
0.023,21.5810546875,-14.974609375,-5.765625
0.0235,21.5009765625,-11.8115234375,-8.8486328125
0.024,21.62109375,-8.6884765625,-12.2119140625
0.0245,20.7802734375,-4.0439453125,-16.015625
0.025,19.298828125,0.080078125,-18.8583984375
0.0255,17.056640625,3.84375,-20.33984375
0.026,14.814453125,7.3271484375,-21.4609375
0.0265,11.37109375,10.5302734375,-21.3408203125
0.027,6.7666015625,14.4541015625,-20.7802734375
0.0275,2.6025390625,17.45703125,-19.619140625
0.028,-2.5224609375,19.8994140625,-17.4169921875
0.0285,-6.166015625,21.1806640625,-15.1748046875
0.029,-9.0087890625,21.2607421875,-12.4921875
0.0295,-12.2919921875,21.30078125,-9.8896484375
0.03,-16.2158203125,20.1796875,-4.8447265625
0.0305,-18.8583984375,18.5380859375,-0.6806640625
0.031,-20.580078125,16.3759765625,3.203125
0.0315,-21.6611328125,13.93359375,6.6865234375
0.032,-21.5009765625,10.4501953125,9.849609375
0.0325,-21.220703125,6.646484375,13.5732421875
0.033,-20.3798828125,2.72265625,16.81640625
0.0335,-18.578125,-1.841796875,19.37890625
0.034,-16.17578125,-5.4453125,20.66015625
0.0345,-13.693359375,-8.4482421875,21.2607421875
0.035,-10.5703125,-11.53125,21.380859375
0.0355,-5.1650390625,-15.6552734375,20.1796875
0.036,-1.0009765625,-18.2177734375,18.73828125
0.0365,3.4833984375,-20.01953125,16.576171875
0.037,6.88671875,-21.220703125,14.333984375
0.0375,10.009765625,-20.8203125,11.2109375
0.038,13.0927734375,-20.7802734375,8.2880859375
0.0385,16.6162109375,-19.7392578125,3.84375
0.039,19.21875,-17.6572265625,-0.80078125
0.0395,20.4599609375,-15.455078125,-4.2041015625
0.04,21.140625,-13.1328125,-7.447265625
0.0405,21.060546875,-9.8095703125,-10.330078125
0.041,20.4599609375,-5.4052734375,-14.494140625
0.0415,19.5390625,-1.8818359375,-17.0166015625
0.042,17.697265625,2.322265625,-19.298828125
0.0425,15.3349609375,5.8857421875,-20.5
0.043,12.2119140625,8.96875,-20.5400390625
0.0435,9.12890625,12.1318359375,-20.7802734375
0.044,3.8837890625,16.0556640625,-19.5390625
0.0445,-0.880859375,18.5380859375,-17.6572265625
0.045,-4.404296875,19.9794921875,-15.6953125
0.0455,-7.6474609375,20.8203125,-13.61328125
0.046,-10.8505859375,20.5400390625,-10.330078125
0.0465,-14.25390625,19.9794921875,-6.486328125
0.047,-17.1767578125,18.978515625,-2.72265625
0.0475,-19.5390625,16.736328125,1.841796875
0.048,-20.5400390625,14.4541015625,5.0048828125
0.0485,-20.740234375,11.6513671875,8.248046875
0.049,-20.8603515625,8.6083984375,11.2509765625
0.0495,-20.099609375,3.84375,15.294921875
0.05,-18.73828125,0.0,17.8974609375
0.0505,-16.8564453125,-3.6435546875,19.5791015625
0.051,-14.6943359375,-7.0068359375,20.7802734375
0.0515,-11.2109375,-10.1298828125,20.5400390625
0.052,-7.3271484375,-13.6533203125,20.33984375
0.0525,-2.642578125,-16.896484375,19.21875
0.053,2.3623046875,-19.37890625,16.7763671875
0.0535,5.4853515625,-20.33984375,14.8544921875
0.054,8.6083984375,-20.8203125,12.4921875
0.0545,11.771484375,-20.7001953125,9.44921875
0.055,15.455078125,-19.6591796875,4.884765625
0.0555,18.09765625,-18.2578125,0.9609375
0.056,19.9794921875,-16.17578125,-2.9228515625
0.0565,20.7001953125,-13.9736328125,-6.166015625
0.057,20.6201171875,-10.5703125,-9.3291015625
0.0575,20.5400390625,-7.20703125,-12.6923828125
0.058,19.8193359375,-2.962890625,-16.0556640625
0.0585,17.9375,1.3212890625,-18.5380859375
0.059,15.85546875,4.6044921875,-19.7392578125
0.0595,13.4931640625,7.8076171875,-20.5
0.06,9.9296875,10.9306640625,-20.2197265625
0.0605,5.205078125,14.6943359375,-19.619140625
0.061,1.041015625,17.5771484375,-18.2578125
0.0615,-3.5234375,19.5390625,-16.095703125
0.062,-6.486328125,20.2197265625,-13.9736328125
0.0625,-9.6494140625,20.33984375,-11.1708984375
0.063,-12.732421875,20.1796875,-8.2080078125
0.0635,-16.095703125,19.05859375,-3.8037109375
0.064,-18.5380859375,17.1767578125,0.6005859375
0.0645,-19.8193359375,15.0546875,3.8037109375
0.065,-20.4599609375,12.6123046875,6.8466796875
0.0655,-20.2197265625,9.3291015625,9.9296875
0.066,-19.7392578125,5.365234375,13.4931640625
0.0665,-19.0185546875,1.76171875,16.4560546875
0.067,-17.0966796875,-2.4423828125,18.6181640625
0.0675,-14.8544921875,-5.5654296875,19.5390625
0.068,-12.33203125,-8.3681640625,20.0595703125
0.0685,-9.0087890625,-11.69140625,19.9794921875
0.069,-4.00390625,-15.2548828125,18.6982421875
0.0695,0.3203125,-17.6572265625,17.0166015625
0.07,3.9638671875,-19.2587890625,15.21484375
0.0705,6.88671875,-19.8193359375,13.0927734375
0.071,9.9296875,-19.69921875,10.1298828125
0.0715,13.0927734375,-19.3388671875,6.806640625
0.072,16.1357421875,-18.2978515625,2.8427734375
0.0725,18.337890625,-16.17578125,-1.4013671875
0.073,19.21875,-14.2138671875,-4.32421875
0.0735,19.779296875,-11.7314453125,-7.3671875
0.074,19.69921875,-8.6484375,-10.330078125
0.0745,19.0185546875,-4.484375,-13.853515625
0.075,17.9775390625,-0.9208984375,-16.49609375
0.0755,16.255859375,2.802734375,-18.2978515625
0.076,14.013671875,5.92578125,-19.05859375
0.0765,11.05078125,8.888671875,-19.21875
0.077,7.4072265625,12.3720703125,-19.298828125
0.0775,2.8828125,15.6552734375,-18.2177734375
0.078,-1.6416015625,17.8173828125,-16.095703125
0.0785,-4.6845703125,19.0185546875,-14.494140625
0.079,-7.6474609375,19.5791015625,-12.3720703125
0.0795,-10.7705078125,19.458984375,-9.2890625
0.08,-14.09375,18.7783203125,-5.3251953125
0.0805,-16.7763671875,17.537109375,-1.6416015625
0.081,-18.73828125,15.4951171875,2.2822265625
0.0815,-19.37890625,13.29296875,5.0849609375
0.082,-19.69921875,10.490234375,8.2880859375
0.0825,-19.5791015625,7.0869140625,11.611328125
0.083,-18.9384765625,3.123046875,14.974609375
0.0835,-17.3369140625,-0.80078125,17.296875
0.084,-15.53515625,-4.0439453125,18.8583984375
0.0845,-13.29296875,-7.0869140625,19.5390625
0.085,-9.9697265625,-10.2099609375,19.4189453125
0.0855,-5.8056640625,-13.7333984375,18.8984375
0.086,-1.361328125,-16.6962890625,17.6572265625
0.0865,2.962890625,-18.578125,15.4951171875
0.087,5.6455078125,-19.21875,13.61328125
0.0875,8.6484375,-19.5791015625,11.2109375
0.088,11.8515625,-19.3388671875,7.9677734375
0.0885,15.0146484375,-18.5380859375,4.083984375
0.089,17.45703125,-16.8564453125,0.1201171875
0.0895,19.138671875,-14.89453125,-3.5634765625
0.09,19.4990234375,-12.4521484375,-6.2861328125
0.0905,19.5390625,-9.44921875,-9.369140625
0.091,19.21875,-5.685546875,-12.8125
0.0915,18.498046875,-2.001953125,-15.8955078125
0.092,16.6162109375,1.921875,-17.857421875
0.0925,14.6142578125,4.884765625,-18.8583984375
0.093,12.171875,7.9677734375,-19.458984375
0.0935,8.3681640625,11.291015625,-19.1787109375
0.094,4.1640625,14.5341796875,-18.2978515625
0.0945,-0.240234375,17.13671875,-16.7763671875
0.095,-4.00390625,18.7783203125,-14.974609375
0.0955,-6.56640625,19.138671875,-12.8525390625
0.096,-9.5693359375,19.3388671875,-10.2900390625
0.0965,-12.97265625,18.818359375,-6.6865234375
0.097,-15.775390625,17.7373046875,-2.8828125
0.0975,-17.8974609375,15.85546875,1.12109375
0.098,-19.0986328125,13.9736328125,4.2041015625
0.0985,-19.458984375,11.4111328125,7.0869140625
0.099,-19.4189453125,8.1279296875,10.3701171875
0.0995,-18.818359375,4.32421875,13.61328125
0.1,-17.8173828125,0.6005859375,16.4560546875
0.1005,-15.9755859375,-3.203125,18.2978515625
0.101,-13.853515625,-5.8857421875,18.8984375
0.1015,-11.3310546875,-8.8486328125,19.37890625
0.102,-7.20703125,-12.4921875,19.0185546875
0.1025,-2.8828125,-15.4150390625,17.857421875
0.103,1.3212890625,-17.4970703125,16.015625
0.1035,4.64453125,-18.978515625,14.333984375
0.104,7.3671875,-19.1787109375,12.091796875
0.1045,10.2900390625,-19.21875,9.2490234375
0.105,13.693359375,-18.658203125,5.5654296875
0.1055,16.4560546875,-17.376953125,1.5615234375
0.106,18.337890625,-15.4150390625,-2.2421875
0.1065,19.05859375,-13.3330078125,-5.0048828125
0.107,19.458984375,-10.6103515625,-8.0478515625
0.1075,19.2587890625,-6.966796875,-11.611328125
0.108,18.578125,-3.4033203125,-14.5341796875
0.1085,17.216796875,0.4404296875,-16.9765625
0.109,15.375,4.0439453125,-18.73828125
0.1095,12.8125,6.7666015625,-19.05859375
0.11,10.0498046875,9.849609375,-19.3388671875
0.1105,5.60546875,13.61328125,-18.8583984375
0.111,1.2412109375,16.5361328125,-17.5771484375
0.1115,-2.802734375,18.2978515625,-15.53515625
0.112,-5.8056640625,19.3388671875,-13.8134765625
0.1125,-8.80859375,19.5390625,-11.2509765625
0.113,-12.091796875,19.2587890625,-7.927734375
0.1135,-15.1748046875,18.5380859375,-4.32421875
0.114,-17.8173828125,16.896484375,0.0400390625
0.1145,-19.5390625,14.814453125,3.763671875
0.115,-19.859375,12.33203125,6.5263671875
0.1155,-20.1796875,9.4892578125,9.76953125
0.116,-19.69921875,5.125,13.693359375
0.1165,-18.818359375,1.4013671875,16.576171875
0.117,-16.9765625,-2.40234375,18.498046875
0.1175,-15.0546875,-5.8056640625,20.01953125
0.118,-12.0517578125,-8.7685546875,20.099609375
0.1185,-8.5283203125,-12.1318359375,19.9794921875
0.119,-4.1240234375,-15.53515625,19.0986328125
0.1195,0.80078125,-18.2578125,17.216796875
0.12,4.5244140625,-19.8193359375,15.1748046875
0.1205,7.4072265625,-20.259765625,12.97265625
0.121,10.5302734375,-20.5,10.330078125
0.1215,14.2939453125,-19.7392578125,6.005859375
0.122,17.0166015625,-18.578125,2.2822265625
0.1225,19.2587890625,-16.576171875,-1.921875
0.123,20.66015625,-14.3740234375,-5.4453125
0.1235,20.5400390625,-11.4111328125,-8.408203125
0.124,20.66015625,-8.2080078125,-11.7314453125
0.1245,19.8994140625,-3.923828125,-15.2548828125
0.125,18.5380859375,0.240234375,-18.017578125
0.1255,16.3759765625,3.84375,-19.5390625
0.126,14.1337890625,6.966796875,-20.4599609375
0.1265,11.0107421875,10.08984375,-20.5400390625
0.127,6.2861328125,14.0537109375,-19.8994140625
0.1275,2.322265625,16.81640625,-18.8583984375
0.128,-2.482421875,19.1787109375,-16.65625
0.1285,-6.005859375,20.3798828125,-14.654296875
0.129,-8.80859375,20.2998046875,-12.01171875
0.1295,-11.8115234375,20.4599609375,-9.369140625
0.13,-15.5751953125,19.4990234375,-4.7646484375
0.1305,-18.1376953125,17.8173828125,-0.640625
0.131,-19.8193359375,15.8154296875,3.04296875
0.1315,-20.8203125,13.453125,6.326171875
0.132,-20.6201171875,10.2900390625,9.4091796875
0.1325,-20.3798828125,6.3662109375,13.0927734375
0.133,-19.5791015625,2.6826171875,16.0556640625
0.1335,-17.9775390625,-1.6015625,18.6181640625
0.134,-15.6953125,-5.1650390625,19.9794921875
0.1345,-13.1728515625,-7.927734375,20.2998046875
0.135,-10.330078125,-10.9306640625,20.5400390625
0.1355,-5.125,-14.974609375,19.4990234375
0.136,-0.880859375,-17.45703125,17.9775390625
0.1365,3.1630859375,-19.298828125,15.9755859375
0.137,6.5263671875,-20.4599609375,14.013671875
0.1375,9.529296875,-20.1796875,10.970703125
0.138,12.572265625,-20.01953125,8.0078125
0.1385,15.9755859375,-19.1787109375,3.8837890625
0.139,18.6181640625,-17.216796875,-0.640625
0.1395,19.9794921875,-15.1748046875,-4.00390625
0.14,20.6201171875,-12.6923828125,-7.126953125
0.1405,20.66015625,-9.7294921875,-10.169921875
0.141,20.099609375,-5.1650390625,-14.173828125
0.1415,19.1787109375,-1.7216796875,-16.736328125
0.142,17.4169921875,2.2421875,-18.9384765625
0.1425,15.134765625,5.8056640625,-20.2998046875
0.143,11.9716796875,8.80859375,-20.1796875
0.1435,8.9287109375,12.0517578125,-20.4599609375
0.144,3.8037109375,15.935546875,-19.37890625
0.1445,-1.0810546875,18.498046875,-17.376953125
0.145,-4.564453125,19.859375,-15.4150390625
0.1455,-7.8076171875,20.740234375,-13.373046875
0.146,-11.05078125,20.580078125,-10.2099609375
0.1465,-14.57421875,19.9794921875,-6.24609375
0.147,-17.4970703125,18.9384765625,-2.4423828125
0.1475,-19.8994140625,16.736328125,2.162109375
0.148,-20.98046875,14.4140625,5.525390625
0.1485,-21.1806640625,11.37109375,8.80859375
0.149,-21.30078125,8.328125,12.01171875
0.1495,-20.5,3.4833984375,16.0556640625
0.15,-18.9384765625,-0.6806640625,18.6982421875
0.1505,-16.896484375,-4.3642578125,20.33984375
0.151,-14.654296875,-7.767578125,21.541015625
0.1515,-10.890625,-11.0107421875,21.140625
0.152,-6.88671875,-14.6142578125,20.8603515625
0.1525,-2.1220703125,-17.9775390625,19.5791015625
0.153,3.1630859375,-20.33984375,17.0166015625
0.1535,6.4462890625,-21.220703125,14.89453125
0.154,9.7294921875,-21.6611328125,12.2919921875
0.1545,12.9326171875,-21.5009765625,9.12890625
0.155,16.7763671875,-20.2998046875,4.32421875
0.1555,19.4990234375,-18.73828125,0.1201171875
0.156,21.380859375,-16.416015625,-4.1240234375
0.1565,22.0615234375,-13.8134765625,-7.4072265625
0.157,21.9013671875,-10.1298828125,-10.9306640625
0.1575,21.62109375,-6.56640625,-14.2939453125
0.158,20.7001953125,-2.162109375,-17.8173828125
0.1585,18.5380859375,2.5224609375,-20.259765625
0.159,16.0556640625,6.005859375,-21.3408203125
0.1595,13.453125,9.3291015625,-22.1015625
0.16,9.529296875,12.732421875,-21.6611328125
0.1605,4.484375,16.49609375,-20.6201171875
0.161,0.0,19.2587890625,-19.138671875
0.1615,-4.8046875,21.30078125,-16.6162109375
0.162,-7.9677734375,21.78125,-14.173828125
0.1625,-11.4111328125,21.7412109375,-10.9306640625
0.163,-14.57421875,21.4208984375,-7.7275390625
0.1635,-18.09765625,20.01953125,-2.9228515625
0.164,-20.580078125,17.77734375,1.8818359375
0.1645,-21.861328125,15.4150390625,5.4052734375
0.165,-22.3818359375,12.65234375,8.6884765625
0.1655,-21.94140625,8.8486328125,12.1318359375
0.166,-21.220703125,4.5244140625,15.7353515625
0.1665,-20.2197265625,0.6005859375,18.658203125
0.167,-17.9375,-3.923828125,20.9404296875
0.1675,-15.294921875,-7.20703125,21.62109375
0.168,-12.3720703125,-10.41015625,21.9814453125
0.1685,-8.568359375,-13.853515625,21.6611328125
0.169,-3.203125,-17.537109375,20.1396484375
0.1695,1.5615234375,-19.8994140625,18.09765625
0.17,5.4853515625,-21.4609375,15.9755859375
0.1705,8.6083984375,-21.8212890625,13.4931640625
0.171,12.01171875,-21.5009765625,9.9697265625
0.1715,15.375,-20.98046875,6.2861328125
0.172,18.5380859375,-19.619140625,1.921875
0.1725,20.8603515625,-17.13671875,-2.9228515625
0.173,21.7412109375,-14.7744140625,-6.1259765625
0.1735,22.0615234375,-11.8115234375,-9.44921875
0.174,21.78125,-8.087890625,-12.8525390625
0.1745,20.7802734375,-3.6435546875,-16.416015625
0.175,19.458984375,0.4404296875,-19.05859375
0.1755,17.296875,4.484375,-21.0205078125
0.176,14.494140625,7.767578125,-21.5810546875
0.1765,11.05078125,11.130859375,-21.6611328125
0.177,6.88671875,14.8544921875,-21.2607421875
0.1775,1.841796875,18.2578125,-19.8193359375
0.178,-3.1630859375,20.4599609375,-17.3369140625
0.1785,-6.5263671875,21.5810546875,-15.3349609375
0.179,-9.76953125,21.9013671875,-12.6923828125
0.1795,-13.212890625,21.5009765625,-9.0087890625
0.18,-16.6962890625,20.5400390625,-4.8046875
0.1805,-19.5390625,18.9384765625,-0.400390625
0.181,-21.62109375,16.49609375,4.1240234375
0.1815,-22.0615234375,13.7734375,7.2470703125
0.182,-22.3017578125,10.41015625,10.8505859375
0.1825,-21.9013671875,6.40625,14.57421875
0.183,-20.8203125,2.001953125,17.9375
0.1835,-18.818359375,-2.3623046875,20.2197265625
0.184,-16.6162109375,-6.1259765625,21.8212890625
0.1845,-13.7734375,-9.3291015625,22.2216796875
0.185,-9.849609375,-12.8125,21.8212890625
0.1855,-5.205078125,-16.4560546875,21.1005859375
0.186,0.0,-19.5791015625,19.3388671875
0.1865,4.7646484375,-21.5009765625,16.65625
0.187,7.84765625,-22.021484375,14.3740234375
0.1875,11.3310546875,-22.26171875,11.37109375
0.188,14.8544921875,-21.62109375,7.4072265625
0.1885,18.0576171875,-20.3798828125,3.123046875
0.189,20.7001953125,-18.337890625,-1.5615234375
0.1895,22.421875,-15.85546875,-5.6455078125
0.19,22.4619140625,-12.8125,-8.7685546875
0.1905,22.421875,-9.2890625,-12.33203125
0.191,21.701171875,-4.9248046875,-16.015625
0.1915,20.5,-0.640625,-19.0986328125
0.192,18.0576171875,3.8037109375,-20.98046875
0.1925,15.615234375,7.126953125,-22.1015625
0.193,12.4521484375,10.5302734375,-22.3818359375
0.1935,8.0478515625,14.25390625,-21.78125
0.194,3.443359375,17.5771484375,-20.66015625
0.1945,-1.7216796875,20.33984375,-18.578125
0.195,-6.0458984375,21.9814453125,-16.17578125
0.1955,-9.0087890625,22.021484375,-13.4931640625
0.196,-12.412109375,22.181640625,-10.4501953125
0.1965,-16.1357421875,21.2607421875,-6.0458984375
0.197,-19.0986328125,19.779296875,-1.681640625
0.1975,-21.220703125,17.4169921875,2.802734375
0.198,-22.501953125,14.89453125,6.5263671875
0.1985,-22.501953125,11.6513671875,9.76953125
0.199,-22.3017578125,7.767578125,13.4931640625
0.1995,-21.30078125,3.4833984375,16.896484375
0.2,-19.939453125,-1.0810546875,19.8994140625
0.2005,-17.3369140625,-5.1650390625,21.541015625
0.201,-14.7744140625,-8.2080078125,22.021484375
0.2015,-11.6513671875,-11.4912109375,22.341796875
0.202,-6.6865234375,-15.455078125,21.4609375
0.2025,-2.0419921875,-18.3779296875,19.939453125
0.203,2.802734375,-20.5400390625,17.6171875
0.2035,6.6865234375,-21.94140625,15.4150390625
0.204,9.6494140625,-21.78125,12.4921875
0.2045,12.9326171875,-21.7412109375,9.369140625
0.205,16.6162109375,-20.7802734375,4.96484375
0.2055,19.458984375,-18.9384765625,0.3603515625
0.206,21.2607421875,-16.576171875,-3.84375
0.2065,22.021484375,-14.0537109375,-7.0869140625
0.207,22.1015625,-10.8505859375,-10.4501953125
0.2075,21.701171875,-6.486328125,-14.4140625
0.208,20.6201171875,-2.72265625,-17.296875
0.2085,18.9384765625,1.681640625,-19.8994140625
0.209,16.49609375,5.6455078125,-21.5009765625
0.2095,13.533203125,8.6884765625,-21.5810546875
0.21,10.41015625,11.9716796875,-21.8212890625
0.2105,5.2451171875,16.1357421875,-20.900390625
0.211,0.4404296875,19.0185546875,-19.21875
0.2115,-3.8837890625,20.740234375,-16.9365234375
0.212,-7.4072265625,21.8212890625,-14.7744140625
0.2125,-10.6904296875,21.7412109375,-11.611328125
0.213,-14.173828125,21.30078125,-7.8876953125
0.2135,-17.45703125,20.33984375,-3.84375
0.214,-20.2197265625,18.2177734375,1.0009765625
0.2145,-21.78125,15.8154296875,4.96484375
0.215,-22.0615234375,12.9326171875,8.1279296875
0.2155,-22.3017578125,9.76953125,11.4912109375
0.216,-21.62109375,4.8046875,15.7353515625
0.2165,-20.3798828125,0.80078125,18.6181640625
0.217,-18.41796875,-3.36328125,20.740234375
0.2175,-16.015625,-7.126953125,22.26171875
