wavelength,x,y,z
0.0,-6.6064453125,10.169921875,-3.603515625
0.0005,-7.84765625,9.7294921875,-2.08203125
0.001,-9.208984375,9.0888671875,-0.1201171875
0.0015,-9.689453125,7.767578125,1.6416015625
0.002,-10.2099609375,6.646484375,3.36328125
0.0025,-10.1298828125,4.64453125,5.3251953125
0.003,-9.9697265625,2.72265625,7.046875
0.0035,-9.44921875,0.9208984375,8.408203125
0.004,-8.6884765625,-1.12109375,9.609375
0.0045,-7.4072265625,-2.8828125,10.08984375
0.005,-6.166015625,-4.564453125,10.5302734375
0.0055,-4.00390625,-6.646484375,10.4501953125
0.006,-2.2021484375,-8.0078125,10.0498046875
0.0065,0.0,-9.369140625,9.2490234375
0.007,1.9619140625,-10.25,8.16796875
0.0075,3.923828125,-10.73046875,6.7666015625
0.008,5.685546875,-10.7705078125,5.125
0.0085,7.6875,-10.5703125,2.962890625
0.009,8.6484375,-10.0498046875,1.44140625
0.0095,9.8095703125,-9.208984375,-0.5205078125
0.01,10.2900390625,-7.84765625,-2.2822265625
0.0105,10.6103515625,-6.40625,-4.0439453125
0.011,10.4501953125,-4.244140625,-6.0859375
0.0115,10.2099609375,-2.322265625,-7.7275390625
0.012,9.4091796875,-0.5205078125,-8.7685546875
0.0125,8.568359375,1.44140625,-9.849609375
0.013,7.1669921875,3.203125,-10.2099609375
0.0135,5.7255859375,4.9248046875,-10.4501953125
0.014,3.4833984375,6.966796875,-10.25
0.0145,1.8017578125,8.1279296875,-9.76953125
0.015,-0.3603515625,9.2490234375,-8.6884765625
0.0155,-2.2822265625,9.9697265625,-7.6875
0.016,-4.1640625,10.2900390625,-6.1259765625
0.0165,-5.8056640625,10.169921875,-4.5244140625
0.017,-7.7275390625,9.8896484375,-2.4423828125
0.0175,-8.48828125,9.12890625,-0.9609375
0.018,-9.529296875,8.2880859375,1.041015625
0.0185,-9.8896484375,7.0068359375,2.72265625
0.019,-10.169921875,5.4853515625,4.484375
0.0195,-9.9296875,3.3232421875,6.40625
0.02,-9.7294921875,1.5615234375,7.9677734375
0.0205,-8.728515625,-0.2802734375,8.8486328125
0.021,-7.927734375,-2.162109375,9.9296875
0.0215,-6.4462890625,-3.8837890625,10.2099609375
0.022,-5.0048828125,-5.525390625,10.330078125
0.0225,-2.72265625,-7.5673828125,10.1298828125
0.023,-1.0009765625,-8.6884765625,9.529296875
0.0235,1.201171875,-9.689453125,8.3681640625
0.024,2.962890625,-10.3701171875,7.3671875
0.0245,4.8046875,-10.5703125,5.7255859375
0.025,6.486328125,-10.4501953125,3.9638671875
0.0255,8.328125,-10.25,1.9619140625
0.026,9.0087890625,-9.2490234375,0.400390625
0.0265,9.9697265625,-8.2880859375,-1.521484375
0.027,10.2099609375,-6.88671875,-3.1630859375
0.0275,10.330078125,-5.2451171875,-4.9248046875
0.028,10.08984375,-3.0830078125,-6.8466796875
0.0285,9.76953125,-1.28125,-8.328125
0.029,8.6083984375,0.640625,-9.0888671875
0.0295,7.767578125,2.40234375,-9.9697265625
0.03,6.2060546875,4.0439453125,-10.0498046875
0.0305,4.6044921875,5.685546875,-10.08984375
0.031,2.482421875,7.607421875,-9.8896484375
0.0315,0.6005859375,8.6484375,-9.0087890625
0.032,-1.5615234375,9.529296875,-7.84765625
0.0325,-3.203125,9.9296875,-6.806640625
0.033,-5.0048828125,9.9697265625,-5.0849609375
0.0335,-6.6064453125,9.7294921875,-3.36328125
0.034,-8.2880859375,9.5693359375,-1.44140625
0.0345,-8.9287109375,8.408203125,0.2802734375
0.035,-9.7294921875,7.4873046875,2.0419921875
0.0355,-9.76953125,6.005859375,3.5634765625
0.036,-9.8095703125,4.2841796875,5.365234375
0.0365,-9.5693359375,2.2421875,7.1669921875
0.037,-9.1689453125,0.4404296875,8.6083984375
0.0375,-7.927734375,-1.521484375,9.2890625
0.038,-7.126953125,-3.0830078125,10.0498046875
0.0385,-5.4453125,-4.7646484375,10.0498046875
0.039,-3.8037109375,-6.40625,9.9697265625
0.0395,-1.681640625,-8.2080078125,9.7294921875
0.04,0.3203125,-9.208984375,8.728515625
0.0405,2.322265625,-10.08984375,7.6474609375
0.041,3.8837890625,-10.41015625,6.4462890625
0.0415,5.8056640625,-10.41015625,4.5244140625
0.042,7.3271484375,-10.1298828125,2.9228515625
0.0425,8.888671875,-9.7294921875,1.0009765625
0.043,9.529296875,-8.5283203125,-0.80078125
0.0435,10.2099609375,-7.5673828125,-2.4423828125
0.044,10.169921875,-5.8056640625,-4.2041015625
0.0445,10.1298828125,-3.9638671875,-6.0458984375
0.045,9.8095703125,-2.0419921875,-7.6474609375
0.0455,9.1689453125,0.0,-8.96875
0.046,7.9677734375,1.8017578125,-9.5693359375
0.0465,6.966796875,3.283203125,-10.08984375
0.047,5.044921875,5.205078125,-10.0498046875
0.0475,3.3232421875,6.6865234375,-9.849609375
0.048,1.28125,8.2880859375,-9.4091796875
0.0485,-0.720703125,9.0888671875,-8.328125
0.049,-2.642578125,9.76953125,-7.126953125
0.0495,-4.3642578125,9.9697265625,-5.7255859375
0.05,-6.2861328125,9.849609375,-3.68359375
0.0505,-7.4072265625,9.529296875,-2.2421875
0.051,-8.728515625,8.888671875,-0.3203125
0.0515,-9.2490234375,7.6875,1.361328125
0.052,-9.76953125,6.56640625,3.0029296875
0.0525,-9.6494140625,4.6845703125,4.8447265625
0.053,-9.529296875,2.8828125,6.5263671875
0.0535,-9.0888671875,1.12109375,7.8076171875
0.054,-8.328125,-0.80078125,8.96875
0.0545,-7.20703125,-2.4423828125,9.529296875
0.055,-6.1259765625,-4.00390625,9.9296875
0.0555,-4.083984375,-5.92578125,9.849609375
0.056,-2.5224609375,-7.287109375,9.609375
0.0565,-0.48046875,-8.6884765625,8.9287109375
0.057,1.44140625,-9.4892578125,7.927734375
0.0575,3.3232421875,-10.1298828125,6.6865234375
0.058,5.0048828125,-10.2099609375,5.205078125
0.0585,6.8466796875,-10.0498046875,3.3232421875
0.059,7.84765625,-9.6494140625,1.921875
0.0595,9.0888671875,-8.9287109375,0.0400390625
0.06,9.5693359375,-7.7275390625,-1.6416015625
0.0605,10.0498046875,-6.5263671875,-3.36328125
0.061,9.9296875,-4.484375,-5.3251953125
0.0615,9.849609375,-2.7626953125,-6.9267578125
0.062,9.208984375,-1.0009765625,-8.087890625
0.0625,8.4482421875,0.9609375,-9.2490234375
0.063,7.20703125,2.6826171875,-9.689453125
0.0635,5.8857421875,4.404296875,-10.0498046875
0.064,3.7236328125,6.40625,-9.9296875
0.0645,2.08203125,7.5673828125,-9.5693359375
0.065,-0.080078125,8.728515625,-8.6083984375
0.0655,-1.9619140625,9.529296875,-7.607421875
0.066,-3.84375,9.9697265625,-6.1259765625
0.0665,-5.525390625,9.9296875,-4.4443359375
0.067,-7.3671875,9.7294921875,-2.5224609375
0.0675,-8.2080078125,9.0087890625,-1.0009765625
0.068,-9.208984375,8.1279296875,0.9208984375
0.0685,-9.5693359375,6.806640625,2.5625
0.069,-9.8095703125,5.365234375,4.32421875
0.0695,-9.609375,3.203125,6.24609375
0.07,-9.369140625,1.521484375,7.6875
0.0705,-8.3681640625,-0.3603515625,8.6083984375
0.071,-7.5673828125,-2.162109375,9.5693359375
0.0715,-6.2060546875,-3.8037109375,9.849609375
0.072,-4.7646484375,-5.365234375,9.9296875
0.0725,-2.6025390625,-7.3271484375,9.7294921875
0.073,-0.9208984375,-8.3681640625,9.0888671875
0.0735,1.1611328125,-9.369140625,7.9677734375
0.074,2.8427734375,-9.9296875,7.0068359375
0.0745,4.6044921875,-10.1298828125,5.525390625
0.075,6.24609375,-9.9697265625,3.84375
0.0755,7.927734375,-9.849609375,2.0419921875
0.076,8.6083984375,-8.9287109375,0.5205078125
0.0765,9.5693359375,-8.087890625,-1.3212890625
0.077,9.8095703125,-6.7265625,-2.8828125
0.0775,10.0498046875,-5.28515625,-4.6044921875
0.078,9.76953125,-3.1630859375,-6.5263671875
0.0785,9.609375,-1.4814453125,-7.9677734375
0.079,8.48828125,0.4404296875,-8.7685546875
0.0795,7.7275390625,2.162109375,-9.7294921875
0.08,6.24609375,3.84375,-9.8896484375
0.0805,4.6845703125,5.4453125,-10.009765625
0.081,2.5625,7.3671875,-9.8896484375
0.0815,0.6806640625,8.4482421875,-9.048828125
0.082,-1.44140625,9.44921875,-7.927734375
0.0825,-3.0830078125,9.9296875,-6.8466796875
0.083,-4.96484375,10.0498046875,-5.125
0.0835,-6.646484375,9.8896484375,-3.3232421875
0.084,-8.328125,9.609375,-1.44140625
0.0845,-9.0087890625,8.4482421875,0.3603515625
0.085,-9.8095703125,7.4873046875,2.1220703125
0.0855,-9.8095703125,5.9658203125,3.68359375
0.086,-9.8896484375,4.1240234375,5.5654296875
0.0865,-9.609375,2.08203125,7.3671875
0.087,-9.1689453125,0.16015625,8.80859375
0.0875,-7.84765625,-1.8017578125,9.44921875
0.088,-7.0068359375,-3.2431640625,10.1298828125
0.0885,-5.2451171875,-5.0849609375,10.08984375
0.089,-3.5234375,-6.7265625,9.9296875
0.0895,-1.361328125,-8.48828125,9.609375
0.09,0.6005859375,-9.3291015625,8.6083984375
0.0905,2.5625,-10.08984375,7.447265625
0.091,4.1240234375,-10.2900390625,6.2060546875
0.0915,6.0458984375,-10.25,4.244140625
0.092,7.4072265625,-9.9697265625,2.6826171875
0.0925,8.96875,-9.5693359375,0.80078125
0.093,9.44921875,-8.328125,-0.9609375
0.0935,10.08984375,-7.4072265625,-2.5625
0.094,10.0498046875,-5.6455078125,-4.244140625
0.0945,9.9697265625,-3.8837890625,-5.9658203125
0.095,9.6494140625,-1.9619140625,-7.5673828125
0.0955,9.0087890625,0.0,-8.8486328125
0.096,7.8076171875,1.76171875,-9.44921875
0.0965,6.88671875,3.1630859375,-10.009765625
0.097,5.0849609375,5.044921875,-10.009765625
0.0975,3.36328125,6.5263671875,-9.8095703125
0.098,1.361328125,8.2080078125,-9.4091796875
0.0985,-0.640625,9.0888671875,-8.328125
0.099,-2.5625,9.849609375,-7.20703125
0.0995,-4.244140625,10.009765625,-5.765625
0.1,-6.1259765625,9.9296875,-3.84375
0.1005,-7.3671875,9.609375,-2.3623046875
0.101,-8.728515625,8.96875,-0.4404296875
0.1015,-9.2890625,7.7275390625,1.3212890625
0.102,-9.849609375,6.6865234375,3.0029296875
0.1025,-9.76953125,4.7646484375,4.884765625
0.103,-9.6494140625,2.9228515625,6.56640625
0.1035,-9.1689453125,1.12109375,7.9677734375
0.104,-8.408203125,-0.8408203125,9.0888671875
0.1045,-7.20703125,-2.6025390625,9.609375
0.105,-6.0859375,-4.2041015625,10.0498046875
0.1055,-4.00390625,-6.2060546875,9.9296875
0.106,-2.3623046875,-7.447265625,9.609375
0.1065,-0.3203125,-8.7685546875,8.9287109375
0.107,1.6015625,-9.5693359375,7.8076171875
0.1075,3.4833984375,-10.08984375,6.56640625
0.108,5.1650390625,-10.1298828125,4.96484375
0.1085,6.966796875,-9.9697265625,3.123046875
0.109,7.8876953125,-9.44921875,1.7216796875
0.1095,9.0087890625,-8.728515625,-0.080078125
0.11,9.4091796875,-7.447265625,-1.8017578125
0.1105,9.849609375,-6.2861328125,-3.443359375
0.111,9.689453125,-4.2041015625,-5.3251953125
0.1115,9.529296875,-2.642578125,-6.7265625
0.112,8.888671875,-0.8408203125,-7.84765625
0.1125,8.087890625,0.8408203125,-8.8486328125
0.113,6.88671875,2.482421875,-9.2890625
0.1135,5.6455078125,4.00390625,-9.609375
0.114,3.6435546875,5.9658203125,-9.44921875
0.1145,2.2421875,7.046875,-9.048828125
0.115,0.2001953125,8.2080078125,-8.2880859375
0.1155,-1.5615234375,8.9287109375,-7.2470703125
0.116,-3.36328125,9.4091796875,-6.0859375
0.1165,-4.96484375,9.3291015625,-4.4443359375
0.117,-6.56640625,9.2490234375,-2.802734375
0.1175,-7.4072265625,8.6484375,-1.44140625
0.118,-8.4482421875,7.9677734375,0.3203125
0.1185,-8.8486328125,6.7265625,1.921875
0.119,-9.2490234375,5.5654296875,3.5634765625
0.1195,-9.0888671875,3.4833984375,5.4853515625
0.12,-9.0087890625,2.08203125,6.7666015625
0.1205,-8.2880859375,0.240234375,7.8076171875
0.121,-7.5673828125,-1.4814453125,8.80859375
0.1215,-6.326171875,-3.203125,9.2490234375
0.122,-4.96484375,-4.6845703125,9.529296875
0.1225,-2.962890625,-6.6064453125,9.4091796875
0.123,-1.361328125,-7.6474609375,8.888671875
0.1235,0.640625,-8.7685546875,8.0078125
0.124,2.40234375,-9.44921875,7.0068359375
0.1245,4.1240234375,-9.76953125,5.6455078125
0.125,5.765625,-9.6494140625,3.923828125
0.1255,7.4072265625,-9.609375,2.2822265625
0.126,8.1279296875,-8.6884765625,0.7607421875
0.1265,9.0888671875,-7.9677734375,-1.0009765625
0.127,9.2890625,-6.56640625,-2.6025390625
0.1275,9.5693359375,-5.1650390625,-4.244140625
0.128,9.3291015625,-3.0830078125,-6.1259765625
0.1285,9.048828125,-1.5615234375,-7.447265625
0.129,8.0478515625,0.2802734375,-8.2880859375
0.1295,7.287109375,1.8818359375,-9.0888671875
0.13,5.8857421875,3.5234375,-9.2490234375
0.1305,4.32421875,5.0849609375,-9.2890625
0.131,2.482421875,6.8466796875,-9.12890625
0.1315,0.7607421875,7.6875,-8.2880859375
0.132,-1.201171875,8.6484375,-7.4072265625
0.1325,-2.7626953125,9.048828125,-6.2861328125
0.133,-4.3642578125,9.208984375,-4.884765625
0.1335,-5.9658203125,9.0087890625,-3.1630859375
0.134,-7.3671875,8.888671875,-1.6416015625
0.1345,-7.9677734375,7.8076171875,0.0
0.135,-8.728515625,7.046875,1.521484375
0.1355,-8.8486328125,5.60546875,3.04296875
0.136,-8.96875,4.2041015625,4.6044921875
0.1365,-8.80859375,2.2421875,6.40625
0.137,-8.408203125,0.7607421875,7.52734375
0.1375,-7.447265625,-1.12109375,8.2880859375
0.138,-6.7265625,-2.5224609375,9.048828125
0.1385,-5.28515625,-4.083984375,9.2490234375
0.139,-3.7236328125,-5.6455078125,9.208984375
0.1395,-1.8818359375,-7.4072265625,9.0888671875
0.14,0.0,-8.2080078125,8.1279296875
0.1405,1.8017578125,-9.2490234375,7.3671875
0.141,3.3232421875,-9.4892578125,6.1259765625
0.1415,5.044921875,-9.6494140625,4.64453125
0.142,6.6865234375,-9.5693359375,2.9228515625
0.1425,8.0478515625,-9.2490234375,1.3212890625
0.143,8.6884765625,-8.1279296875,-0.400390625
0.1435,9.4091796875,-7.3671875,-1.921875
0.144,9.44921875,-5.685546875,-3.603515625
0.1445,9.529296875,-4.1240234375,-5.3251953125
0.145,9.2890625,-2.1220703125,-7.126953125
0.1455,8.6484375,-0.3203125,-8.248046875
0.146,7.607421875,1.521484375,-9.0087890625
0.1465,6.6865234375,2.9228515625,-9.4091796875
0.147,4.96484375,4.7646484375,-9.529296875
0.1475,3.203125,6.326171875,-9.369140625
0.148,1.3212890625,7.927734375,-9.0888671875
0.1485,-0.640625,8.6484375,-7.8876953125
0.149,-2.4423828125,9.44921875,-7.0068359375
0.1495,-4.1640625,9.5693359375,-5.4052734375
0.15,-5.92578125,9.529296875,-3.68359375
0.1505,-7.2470703125,9.208984375,-2.08203125
0.151,-8.48828125,8.6083984375,-0.2802734375
0.1515,-8.96875,7.4072265625,1.4013671875
0.152,-9.4892578125,6.4462890625,2.8427734375
0.1525,-9.3291015625,4.404296875,4.7646484375
0.153,-9.2890625,2.7626953125,6.24609375
0.1535,-8.888671875,0.880859375,7.8076171875
0.154,-8.0478515625,-0.9208984375,8.80859375
0.1545,-7.0068359375,-2.5625,9.4091796875
0.155,-5.845703125,-4.00390625,9.7294921875
0.1555,-3.8837890625,-5.9658203125,9.689453125
0.156,-2.2822265625,-7.287109375,9.4091796875
0.1565,-0.2802734375,-8.6884765625,8.8486328125
0.157,1.6416015625,-9.4091796875,7.6875
0.1575,3.4033203125,-10.08984375,6.646484375
0.158,5.1650390625,-10.08984375,4.884765625
0.1585,6.88671875,-9.9697265625,3.1630859375
0.159,8.0078125,-9.5693359375,1.6416015625
0.1595,9.1689453125,-8.8486328125,-0.16015625
0.16,9.609375,-7.5673828125,-1.8818359375
0.1605,10.08984375,-6.4462890625,-3.5634765625
0.161,9.9296875,-4.2841796875,-5.5654296875
0.1615,9.7294921875,-2.642578125,-6.966796875
0.162,9.12890625,-0.720703125,-8.328125
0.1625,8.2880859375,1.12109375,-9.2490234375
0.163,7.0869140625,2.8427734375,-9.76953125
0.1635,5.685546875,4.5244140625,-10.009765625
0.164,3.5634765625,6.5263671875,-9.9296875
0.1645,1.921875,7.6875,-9.44921875
0.165,-0.240234375,8.9287109375,-8.6083984375
0.1655,-2.1220703125,9.609375,-7.4072265625
0.166,-3.923828125,10.0498046875,-6.1259765625
0.1665,-5.7255859375,9.8896484375,-4.1640625
0.167,-7.4072265625,9.6494140625,-2.4423828125
0.1675,-8.2880859375,8.9287109375,-0.80078125
0.168,-9.2890625,8.0478515625,1.0009765625
0.1685,-9.5693359375,6.646484375,2.6826171875
0.169,-9.8095703125,5.2451171875,4.32421875
0.1695,-9.4892578125,3.04296875,6.3662109375
0.17,-9.2490234375,1.4814453125,7.6474609375
0.1705,-8.3681640625,-0.4404296875,8.6484375
0.171,-7.447265625,-2.1220703125,9.44921875
0.1715,-6.1259765625,-3.84375,9.8095703125
0.172,-4.6044921875,-5.4453125,9.8896484375
0.1725,-2.5625,-7.3271484375,9.689453125
0.173,-0.8408203125,-8.2880859375,8.96875
0.1735,1.201171875,-9.3291015625,8.0478515625
0.174,2.9228515625,-9.849609375,6.8466796875
0.1745,4.6044921875,-10.1298828125,5.5654296875
0.175,6.3662109375,-9.9296875,3.6435546875
0.1755,7.84765625,-9.8095703125,2.08203125
0.176,8.568359375,-8.8486328125,0.48046875
0.1765,9.5693359375,-8.087890625,-1.3212890625
0.177,9.7294921875,-6.6865234375,-2.962890625
0.1775,9.9697265625,-5.205078125,-4.6044921875
0.178,9.7294921875,-3.0029296875,-6.56640625
0.1785,9.4091796875,-1.4814453125,-7.767578125
0.179,8.3681640625,0.48046875,-8.728515625
0.1795,7.52734375,2.1220703125,-9.4892578125
0.18,6.1259765625,3.84375,-9.76953125
0.1805,4.484375,5.4453125,-9.7294921875
0.181,2.5224609375,7.287109375,-9.6494140625
0.1815,0.6806640625,8.16796875,-8.6884765625
0.182,-1.3212890625,9.208984375,-7.8076171875
0.1825,-3.0830078125,9.609375,-6.486328125
0.183,-4.6845703125,9.7294921875,-5.0849609375
0.1835,-6.4462890625,9.529296875,-3.1630859375
0.184,-7.8876953125,9.2490234375,-1.5615234375
0.1845,-8.48828125,8.0478515625,0.2001953125
0.185,-9.3291015625,7.287109375,1.841796875
0.1855,-9.369140625,5.7255859375,3.4833984375
0.186,-9.44921875,4.1640625,5.125
0.1865,-9.1689453125,2.0419921875,7.0068359375
0.187,-8.6884765625,0.48046875,8.087890625
0.1875,-7.607421875,-1.44140625,8.9287109375
0.188,-6.7666015625,-2.8828125,9.529296875
0.1885,-5.2451171875,-4.5244140625,9.609375
0.189,-3.5234375,-6.1259765625,9.4892578125
0.1895,-1.6015625,-7.8876953125,9.3291015625
0.19,0.2802734375,-8.6484375,8.2080078125
0.1905,2.1220703125,-9.609375,7.4072265625
0.191,3.68359375,-9.76953125,6.0458984375
0.1915,5.365234375,-9.849609375,4.5244140625
0.192,7.0068359375,-9.6494140625,2.7626953125
0.1925,8.328125,-9.369140625,1.12109375
0.193,8.9287109375,-8.2080078125,-0.640625
0.1935,9.609375,-7.3671875,-2.08203125
0.194,9.609375,-5.6455078125,-3.8037109375
0.1945,9.6494140625,-4.0439453125,-5.4453125
0.195,9.4091796875,-2.001953125,-7.2470703125
0.1955,8.728515625,-0.2802734375,-8.328125
0.196,7.6875,1.5615234375,-9.12890625
0.1965,6.7265625,2.962890625,-9.529296875
0.197,5.0849609375,4.724609375,-9.6494140625
0.1975,3.3232421875,6.2861328125,-9.4892578125
0.198,1.44140625,7.927734375,-9.1689453125
0.1985,-0.6005859375,8.6484375,-7.9677734375
0.199,-2.3623046875,9.529296875,-7.0869140625
0.1995,-4.0439453125,9.5693359375,-5.4853515625
0.2,-5.765625,9.5693359375,-3.8837890625
0.2005,-7.20703125,9.2490234375,-2.2021484375
0.201,-8.408203125,8.6484375,-0.5205078125
0.2015,-8.9287109375,7.4873046875,1.28125
0.202,-9.4091796875,6.5263671875,2.6826171875
0.2025,-9.3291015625,4.6044921875,4.564453125
0.203,-9.2490234375,3.04296875,6.0859375
0.2035,-8.888671875,1.041015625,7.7275390625
0.204,-8.0478515625,-0.720703125,8.6484375
0.2045,-7.0869140625,-2.40234375,9.2890625
0.205,-5.92578125,-3.84375,9.609375
0.2055,-4.083984375,-5.7255859375,9.609375
0.206,-2.40234375,-7.0869140625,9.2890625
0.2065,-0.4404296875,-8.48828125,8.80859375
0.207,1.4814453125,-9.1689453125,7.607421875
0.2075,3.1630859375,-9.8896484375,6.6865234375
0.208,4.96484375,-9.8095703125,4.9248046875
0.2085,6.486328125,-9.849609375,3.36328125
0.209,7.7275390625,-9.4892578125,1.8017578125
0.2095,8.8486328125,-8.6884765625,0.0400390625
0.21,9.2890625,-7.52734375,-1.6015625
0.2105,9.7294921875,-6.40625,-3.203125
0.211,9.6494140625,-4.32421875,-5.1650390625
0.2115,9.4892578125,-2.8427734375,-6.5263671875
0.212,9.0087890625,-0.880859375,-8.0078125
0.2125,8.087890625,0.9208984375,-8.888671875
0.213,7.0869140625,2.5224609375,-9.4892578125
0.2135,5.685546875,4.2041015625,-9.6494140625
0.214,3.763671875,6.0859375,-9.6494140625
0.2145,2.1220703125,7.287109375,-9.2490234375
0.215,0.1201171875,8.568359375,-8.48828125
0.2155,-1.8017578125,9.1689453125,-7.3271484375
0.216,-3.443359375,9.7294921875,-6.2861328125
0.2165,-5.4052734375,9.5693359375,-4.244140625
0.217,-6.88671875,9.44921875,-2.7626953125
0.2175,-7.8876953125,8.80859375,-1.041015625
0.218,-8.888671875,8.0478515625,0.6806640625
0.2185,-9.2890625,6.6865234375,2.40234375
0.219,-9.609375,5.4052734375,4.0439453125
0.2195,-9.4091796875,3.203125,6.0458984375
0.22,-9.12890625,1.76171875,7.2470703125
0.2205,-8.408203125,-0.2001953125,8.4482421875
0.221,-7.4873046875,-1.921875,9.2490234375
0.2215,-6.2861328125,-3.603515625,9.7294921875
0.222,-4.6845703125,-5.3251953125,9.849609375
0.2225,-2.72265625,-7.1669921875,9.7294921875
0.223,-1.0009765625,-8.2080078125,9.0087890625
0.2235,1.0810546875,-9.3291015625,8.16796875
0.224,2.802734375,-9.849609375,7.0068359375
0.2245,4.6044921875,-10.25,5.60546875
0.225,6.40625,-10.009765625,3.6435546875
0.2255,7.927734375,-9.8095703125,2.08203125
0.226,8.6484375,-8.9287109375,0.400390625
0.2265,9.609375,-8.0478515625,-1.4013671875
