wavelength,x,y,z
0.0,6.70654296875,1.66162109375,-8.30810546875
0.0005,5.22509765625,3.86376953125,-9.10888671875
0.001,3.66357421875,5.38525390625,-8.98876953125
0.0015,1.94189453125,6.82666015625,-8.70849609375
0.002,0.38037109375,7.78759765625,-8.14794921875
0.0025,-1.26123046875,8.70849609375,-7.46728515625
0.003,-3.18310546875,9.38916015625,-6.26611328125
0.0035,-4.94482421875,9.94970703125,-5.14501953125
0.004,-6.10595703125,9.46923828125,-3.58349609375
0.0045,-7.30712890625,9.06884765625,-2.06201171875
0.005,-7.98779296875,8.02783203125,-0.42041015625
0.0055,-8.62841796875,6.98681640625,1.34130859375
0.006,-9.26904296875,5.62548828125,3.38330078125
0.0065,-9.46923828125,4.46435546875,4.82470703125
0.007,-9.10888671875,2.74267578125,6.22607421875
0.0075,-8.30810546875,0.90087890625,7.26708984375
0.008,-7.42724609375,-0.98095703125,8.14794921875
0.0085,-5.98583984375,-3.02294921875,8.74853515625
0.009,-4.50439453125,-5.14501953125,9.34912109375
0.0095,-2.62255859375,-6.54638671875,8.90869140625
0.01,-1.02099609375,-7.82763671875,8.66845703125
0.0105,0.62060546875,-8.62841796875,7.82763671875
0.011,2.30224609375,-9.38916015625,6.98681640625
0.0115,4.34423828125,-10.10986328125,5.74560546875
0.012,5.74560546875,-10.22998046875,4.54443359375
0.0125,6.90673828125,-9.74951171875,2.94287109375
0.013,7.78759765625,-9.06884765625,1.42138671875
0.0135,8.46826171875,-8.06787109375,-0.30029296875
0.014,8.94873046875,-6.82666015625,-2.02197265625
0.0145,9.62939453125,-5.58544921875,-3.94384765625
0.015,9.46923828125,-4.26416015625,-5.14501953125
0.0155,8.98876953125,-2.42236328125,-6.58642578125
0.016,8.06787109375,-0.70068359375,-7.38720703125
0.0165,7.14697265625,1.10107421875,-8.26806640625
0.017,5.66552734375,3.18310546875,-8.86865234375
0.0175,4.22412109375,5.06494140625,-9.30908203125
0.018,2.38232421875,6.42626953125,-8.70849609375
0.0185,0.90087890625,7.62744140625,-8.42822265625
0.019,-0.78076171875,8.42822265625,-7.70751953125
0.0195,-2.46240234375,9.10888671875,-6.74658203125
0.02,-4.50439453125,9.94970703125,-5.54541015625
0.0205,-5.74560546875,9.66943359375,-4.14404296875
0.021,-7.02685546875,9.26904296875,-2.58251953125
0.0215,-7.74755859375,8.38818359375,-0.98095703125
0.022,-8.46826171875,7.42724609375,0.74072265625
0.0225,-8.98876953125,6.10595703125,2.58251953125
0.023,-9.62939453125,4.94482421875,4.42431640625
0.0235,-9.22900390625,3.34326171875,5.62548828125
0.024,-8.66845703125,1.50146484375,7.02685546875
0.0245,-7.70751953125,-0.34033203125,7.78759765625
0.025,-6.62646484375,-2.18212890625,8.54833984375
0.0255,-5.06494140625,-4.46435546875,9.18896484375
0.026,-3.34326171875,-6.06591796875,9.14892578125
0.0265,-1.58154296875,-7.38720703125,8.70849609375
0.027,0.02001953125,-8.30810546875,8.18798828125
0.0275,1.66162109375,-9.14892578125,7.38720703125
0.028,3.54345703125,-9.78955078125,6.26611328125
0.0285,5.38525390625,-10.47021484375,5.06494140625
0.029,6.42626953125,-9.86962890625,3.50341796875
0.0295,7.62744140625,-9.46923828125,1.94189453125
0.03,8.22802734375,-8.38818359375,0.34033203125
0.0305,8.82861328125,-7.38720703125,-1.34130859375
0.031,9.38916015625,-6.02587890625,-3.30322265625
0.0315,9.62939453125,-4.78466796875,-4.82470703125
0.032,9.18896484375,-3.06298828125,-6.10595703125
0.0325,8.46826171875,-1.30126953125,-7.22705078125
0.033,7.50732421875,0.50048828125,-7.98779296875
0.0335,6.26611328125,2.34228515625,-8.66845703125
0.034,4.82470703125,4.62451171875,-9.34912109375
0.0345,2.94287109375,6.02587890625,-8.94873046875
0.035,1.30126953125,7.38720703125,-8.66845703125
0.0355,-0.30029296875,8.22802734375,-7.98779296875
0.036,-1.94189453125,8.98876953125,-7.10693359375
0.0365,-3.90380859375,9.66943359375,-5.94580078125
0.037,-5.50537109375,9.94970703125,-4.66455078125
0.0375,-6.58642578125,9.34912109375,-3.02294921875
0.038,-7.66748046875,8.82861328125,-1.46142578125
0.0385,-8.26806640625,7.70751953125,0.26025390625
0.039,-8.82861328125,6.58642578125,1.94189453125
0.0395,-9.54931640625,5.30517578125,3.98388671875
0.04,-9.34912109375,3.86376953125,5.30517578125
0.0405,-8.90869140625,1.98193359375,6.66650390625
0.041,-8.02783203125,0.22021484375,7.54736328125
0.0415,-7.06689453125,-1.62158203125,8.34814453125
0.042,-5.58544921875,-3.58349609375,8.98876953125
0.0425,-3.98388671875,-5.62548828125,9.34912109375
0.043,-2.10205078125,-6.86669921875,8.70849609375
0.0435,-0.58056640625,-8.10791015625,8.46826171875
0.044,1.10107421875,-8.82861328125,7.62744140625
0.0445,2.82275390625,-9.54931640625,6.66650390625
0.045,4.78466796875,-10.31005859375,5.46533203125
0.0455,6.02587890625,-10.06982421875,4.10400390625
0.046,7.14697265625,-9.54931640625,2.54248046875
0.0465,7.90771484375,-8.70849609375,0.98095703125
0.047,8.50830078125,-7.70751953125,-0.74072265625
0.0475,8.98876953125,-6.50634765625,-2.42236328125
0.048,9.62939453125,-5.26513671875,-4.26416015625
0.0485,9.18896484375,-3.82373046875,-5.42529296875
0.049,8.66845703125,-2.02197265625,-6.70654296875
0.0495,7.70751953125,-0.34033203125,-7.46728515625
0.05,6.78662109375,1.46142578125,-8.22802734375
0.0505,5.38525390625,3.58349609375,-8.90869140625
0.051,3.82373046875,5.26513671875,-8.98876953125
0.0515,2.06201171875,6.50634765625,-8.50830078125
0.052,0.62060546875,7.62744140625,-8.14794921875
0.0525,-1.02099609375,8.38818359375,-7.42724609375
0.053,-2.66259765625,9.06884765625,-6.46630859375
0.0535,-4.58447265625,9.78955078125,-5.38525390625
0.054,-5.70556640625,9.26904296875,-3.82373046875
0.0545,-6.90673828125,8.98876953125,-2.38232421875
0.055,-7.62744140625,8.02783203125,-0.78076171875
0.0555,-8.30810546875,7.10693359375,0.90087890625
0.056,-8.90869140625,5.90576171875,2.70263671875
0.0565,-9.30908203125,4.70458984375,4.34423828125
0.057,-8.82861328125,3.06298828125,5.58544921875
0.0575,-8.30810546875,1.26123046875,6.86669921875
0.058,-7.38720703125,-0.46044921875,7.62744140625
0.0585,-6.34619140625,-2.26220703125,8.34814453125
0.059,-4.86474609375,-4.42431640625,9.02880859375
0.0595,-3.14306640625,-5.82568359375,8.70849609375
0.06,-1.54150390625,-7.18701171875,8.46826171875
0.0605,0.02001953125,-8.06787109375,7.86767578125
0.061,1.66162109375,-8.90869140625,7.10693359375
0.0615,3.42333984375,-9.62939453125,6.10595703125
0.062,5.10498046875,-10.06982421875,4.98486328125
0.0625,6.10595703125,-9.46923828125,3.42333984375
0.063,7.22705078125,-9.06884765625,1.94189453125
0.0635,7.86767578125,-8.06787109375,0.34033203125
0.064,8.50830078125,-7.10693359375,-1.30126953125
0.0645,9.22900390625,-6.02587890625,-3.18310546875
0.065,9.26904296875,-4.66455078125,-4.54443359375
0.0655,8.78857421875,-3.02294921875,-5.82568359375
0.066,8.06787109375,-1.26123046875,-6.86669921875
0.0665,7.22705078125,0.50048828125,-7.70751953125
0.067,6.10595703125,2.42236328125,-8.38818359375
0.0675,4.62451171875,4.46435546875,-8.98876953125
0.068,2.86279296875,5.74560546875,-8.46826171875
0.0685,1.34130859375,7.06689453125,-8.34814453125
0.069,-0.22021484375,7.90771484375,-7.70751953125
0.0695,-1.82177734375,8.66845703125,-6.90673828125
0.07,-3.74365234375,9.50927734375,-5.90576171875
0.0705,-5.14501953125,9.50927734375,-4.54443359375
0.071,-6.30615234375,9.02880859375,-2.98291015625
0.0715,-7.30712890625,8.38818359375,-1.42138671875
0.072,-7.94775390625,7.42724609375,0.26025390625
0.0725,-8.62841796875,6.38623046875,1.94189453125
0.073,-9.34912109375,5.22509765625,3.86376953125
0.0735,-8.98876953125,3.58349609375,5.10498046875
0.074,-8.62841796875,1.94189453125,6.50634765625
0.0745,-7.70751953125,0.14013671875,7.38720703125
0.075,-6.70654296875,-1.66162109375,8.14794921875
0.0755,-5.34521484375,-3.74365234375,8.82861328125
0.076,-3.70361328125,-5.50537109375,8.98876953125
0.0765,-1.94189453125,-6.74658203125,8.46826171875
0.077,-0.46044921875,-7.94775390625,8.18798828125
0.0775,1.30126953125,-8.66845703125,7.30712890625
0.078,2.90283203125,-9.42919921875,6.42626953125
0.0785,4.82470703125,-10.14990234375,5.34521484375
0.079,5.94580078125,-9.66943359375,3.82373046875
0.0795,7.10693359375,-9.26904296875,2.26220703125
0.08,7.82763671875,-8.34814453125,0.70068359375
0.0805,8.46826171875,-7.42724609375,-0.98095703125
0.081,9.02880859375,-6.34619140625,-2.70263671875
0.0815,9.50927734375,-5.06494140625,-4.50439453125
0.082,8.94873046875,-3.30322265625,-5.62548828125
0.0825,8.42822265625,-1.58154296875,-6.86669921875
0.083,7.42724609375,0.18017578125,-7.54736328125
0.0835,6.42626953125,1.94189453125,-8.30810546875
0.084,5.06494140625,4.02392578125,-9.02880859375
0.0845,3.26318359375,5.62548828125,-8.82861328125
0.085,1.66162109375,6.90673828125,-8.46826171875
0.0855,0.14013671875,7.86767578125,-7.98779296875
0.086,-1.58154296875,8.62841796875,-7.10693359375
0.0865,-3.26318359375,9.30908203125,-6.14599609375
0.087,-5.06494140625,9.82958984375,-4.98486328125
0.0875,-6.14599609375,9.14892578125,-3.26318359375
0.088,-7.34716796875,8.78857421875,-1.78173828125
0.0885,-7.94775390625,7.66748046875,-0.14013671875
0.089,-8.58837890625,6.66650390625,1.58154296875
0.0895,-9.26904296875,5.46533203125,3.50341796875
0.09,-9.34912109375,4.06396484375,5.06494140625
0.0905,-8.70849609375,2.30224609375,6.26611328125
0.091,-8.10791015625,0.50048828125,7.42724609375
0.0915,-6.98681640625,-1.34130859375,8.10791015625
0.092,-5.78564453125,-3.18310546875,8.78857421875
0.0925,-4.18408203125,-5.30517578125,9.26904296875
0.093,-2.34228515625,-6.58642578125,8.66845703125
0.0935,-0.78076171875,-7.86767578125,8.38818359375
0.094,0.98095703125,-8.70849609375,7.62744140625
0.0945,2.66259765625,-9.42919921875,6.66650390625
0.095,4.50439453125,-10.10986328125,5.62548828125
0.0955,5.94580078125,-10.14990234375,4.22412109375
0.096,6.98681640625,-9.46923828125,2.58251953125
0.0965,7.98779296875,-8.86865234375,0.98095703125
0.097,8.46826171875,-7.70751953125,-0.74072265625
0.0975,9.02880859375,-6.66650390625,-2.34228515625
0.098,9.62939453125,-5.38525390625,-4.22412109375
0.0985,9.26904296875,-3.66357421875,-5.58544921875
0.099,8.66845703125,-1.94189453125,-6.70654296875
0.0995,7.78759765625,-0.18017578125,-7.62744140625
0.1,6.66650390625,1.66162109375,-8.30810546875
0.1005,5.46533203125,3.58349609375,-8.98876953125
0.101,3.78369140625,5.46533203125,-9.18896484375
0.1015,1.98193359375,6.70654296875,-8.58837890625
0.102,0.46044921875,7.86767578125,-8.26806640625
0.1025,-1.30126953125,8.62841796875,-7.34716796875
0.103,-2.98291015625,9.26904296875,-6.38623046875
0.1035,-4.82470703125,9.94970703125,-5.26513671875
0.104,-6.06591796875,9.50927734375,-3.70361328125
0.1045,-7.18701171875,8.94873046875,-2.10205078125
0.105,-7.98779296875,8.06787109375,-0.46044921875
0.1055,-8.50830078125,6.90673828125,1.30126953125
0.106,-9.10888671875,5.90576171875,2.98291015625
0.1065,-9.62939453125,4.54443359375,4.82470703125
0.107,-8.94873046875,2.70263671875,6.02587890625
0.1075,-8.46826171875,0.98095703125,7.30712890625
0.108,-7.30712890625,-0.94091796875,7.98779296875
0.1085,-6.10595703125,-2.74267578125,8.66845703125
0.109,-4.66455078125,-4.78466796875,9.18896484375
0.1095,-2.86279296875,-6.34619140625,8.98876953125
0.11,-1.18115234375,-7.54736328125,8.46826171875
0.1105,0.42041015625,-8.54833984375,7.94775390625
0.111,2.26220703125,-9.18896484375,6.82666015625
0.1115,3.86376953125,-9.82958984375,5.90576171875
0.112,5.54541015625,-10.35009765625,4.78466796875
0.1125,6.58642578125,-9.62939453125,3.10302734375
0.113,7.66748046875,-9.10888671875,1.58154296875
0.1135,8.22802734375,-8.06787109375,-0.18017578125
0.114,8.78857421875,-6.90673828125,-1.74169921875
0.1145,9.34912109375,-5.82568359375,-3.46337890625
0.115,9.46923828125,-4.34423828125,-5.10498046875
0.1155,8.74853515625,-2.58251953125,-6.14599609375
0.116,8.18798828125,-0.82080078125,-7.34716796875
0.1165,6.98681640625,0.98095703125,-7.90771484375
0.117,5.94580078125,2.78271484375,-8.66845703125
0.1175,4.46435546875,4.74462890625,-9.10888671875
0.118,2.62255859375,6.10595703125,-8.66845703125
0.1185,1.10107421875,7.30712890625,-8.30810546875
0.119,-0.58056640625,8.18798828125,-7.70751953125
0.1195,-2.26220703125,8.90869140625,-6.70654296875
0.12,-3.94384765625,9.54931640625,-5.74560546875
0.1205,-5.42529296875,9.62939453125,-4.46435546875
0.121,-6.46630859375,8.98876953125,-2.82275390625
0.1215,-7.54736328125,8.42822265625,-1.26123046875
0.122,-8.06787109375,7.30712890625,0.58056640625
0.1225,-8.70849609375,6.34619140625,2.10205078125
0.123,-9.34912109375,5.18505859375,3.90380859375
0.1235,-9.10888671875,3.54345703125,5.34521484375
0.124,-8.50830078125,1.78173828125,6.54638671875
0.1245,-7.70751953125,0.02001953125,7.54736328125
0.125,-6.50634765625,-1.94189453125,8.18798828125
0.1255,-5.30517578125,-3.78369140625,8.86865234375
0.126,-3.70361328125,-5.62548828125,9.06884765625
0.1265,-1.94189453125,-6.82666015625,8.50830078125
0.127,-0.38037109375,-7.98779296875,8.18798828125
0.1275,1.42138671875,-8.82861328125,7.22705078125
0.128,3.06298828125,-9.46923828125,6.34619140625
0.1285,4.74462890625,-10.10986328125,5.30517578125
0.129,6.02587890625,-9.82958984375,3.86376953125
0.1295,7.02685546875,-9.26904296875,2.26220703125
0.13,7.94775390625,-8.46826171875,0.66064453125
0.1305,8.38818359375,-7.22705078125,-1.02099609375
0.131,9.02880859375,-6.34619140625,-2.62255859375
0.1315,9.50927734375,-5.06494140625,-4.42431640625
0.132,8.98876953125,-3.26318359375,-5.66552734375
0.1325,8.38818359375,-1.58154296875,-6.82666015625
0.133,7.38720703125,0.26025390625,-7.62744140625
0.1335,6.30615234375,2.10205078125,-8.30810546875
0.134,5.10498046875,3.94384765625,-8.98876953125
0.1345,3.34326171875,5.62548828125,-8.90869140625
0.135,1.66162109375,6.78662109375,-8.38818359375
0.1355,0.14013671875,7.94775390625,-7.98779296875
0.136,-1.74169921875,8.66845703125,-6.98681640625
0.1365,-3.38330078125,9.26904296875,-6.06591796875
0.137,-5.02490234375,9.70947265625,-4.98486328125
0.1375,-6.14599609375,9.14892578125,-3.34326171875
0.138,-7.18701171875,8.66845703125,-1.78173828125
0.1385,-7.94775390625,7.70751953125,0.02001953125
0.139,-8.50830078125,6.54638671875,1.70166015625
0.1395,-9.14892578125,5.58544921875,3.34326171875
0.14,-9.38916015625,4.14404296875,5.02490234375
0.1405,-8.62841796875,2.26220703125,6.14599609375
0.141,-8.06787109375,0.50048828125,7.38720703125
0.1415,-6.82666015625,-1.46142578125,8.02783203125
0.142,-5.62548828125,-3.34326171875,8.74853515625
0.1425,-4.14404296875,-5.14501953125,9.10888671875
0.143,-2.38232421875,-6.58642578125,8.70849609375
0.1435,-0.78076171875,-7.70751953125,8.26806640625
0.144,0.94091796875,-8.66845703125,7.62744140625
0.1445,2.82275390625,-9.38916015625,6.42626953125
0.145,4.34423828125,-9.94970703125,5.54541015625
0.1455,5.74560546875,-10.14990234375,4.30419921875
0.146,6.78662109375,-9.34912109375,2.66259765625
0.1465,7.74755859375,-8.70849609375,1.10107421875
0.147,8.26806640625,-7.54736328125,-0.66064453125
0.1475,8.90869140625,-6.54638671875,-2.26220703125
0.148,9.42919921875,-5.50537109375,-3.86376953125
0.1485,9.22900390625,-3.82373046875,-5.42529296875
0.149,8.46826171875,-2.10205078125,-6.38623046875
0.1495,7.78759765625,-0.30029296875,-7.50732421875
0.15,6.50634765625,1.58154296875,-8.06787109375
0.1505,5.46533203125,3.42333984375,-8.82861328125
0.151,3.86376953125,5.14501953125,-8.94873046875
0.1515,2.18212890625,6.42626953125,-8.50830078125
0.152,0.62060546875,7.54736328125,-8.06787109375
0.1525,-1.14111328125,8.34814453125,-7.30712890625
0.153,-2.82275390625,9.02880859375,-6.34619140625
0.1535,-4.34423828125,9.54931640625,-5.38525390625
0.154,-5.70556640625,9.42919921875,-3.94384765625
0.1545,-6.66650390625,8.74853515625,-2.38232421875
0.155,-7.66748046875,8.06787109375,-0.74072265625
0.1555,-8.14794921875,6.82666015625,1.06103515625
0.156,-8.82861328125,5.94580078125,2.62255859375
0.1565,-9.26904296875,4.82470703125,4.22412109375
0.157,-8.82861328125,3.02294921875,5.62548828125
0.1575,-8.22802734375,1.30126953125,6.74658203125
0.158,-7.30712890625,-0.58056640625,7.66748046875
0.1585,-6.06591796875,-2.46240234375,8.30810546875
0.159,-4.82470703125,-4.22412109375,8.82861328125
0.1595,-3.18310546875,-5.82568359375,8.74853515625
0.16,-1.54150390625,-6.98681640625,8.30810546875
0.1605,0.06005859375,-8.14794921875,7.86767578125
0.161,1.86181640625,-8.82861328125,6.86669921875
0.1615,3.46337890625,-9.58935546875,5.94580078125
0.162,4.86474609375,-9.86962890625,4.98486328125
0.1625,6.06591796875,-9.46923828125,3.46337890625
0.163,6.98681640625,-8.82861328125,1.98193359375
0.1635,7.82763671875,-7.98779296875,0.34033203125
0.164,8.30810546875,-6.86669921875,-1.30126953125
0.1645,8.98876953125,-6.10595703125,-2.82275390625
0.165,9.18896484375,-4.74462890625,-4.42431640625
0.1655,8.54833984375,-2.98291015625,-5.58544921875
0.166,8.02783203125,-1.30126953125,-6.74658203125
0.1665,6.98681640625,0.50048828125,-7.42724609375
0.167,5.98583984375,2.26220703125,-8.22802734375
0.1675,4.74462890625,3.98388671875,-8.66845703125
0.168,3.02294921875,5.46533203125,-8.42822265625
0.1685,1.58154296875,6.54638671875,-8.06787109375
0.169,0.02001953125,7.66748046875,-7.66748046875
0.1695,-1.70166015625,8.30810546875,-6.74658203125
0.17,-3.22314453125,9.06884765625,-5.94580078125
0.1705,-4.62451171875,9.22900390625,-4.82470703125
0.171,-5.74560546875,8.74853515625,-3.26318359375
0.1715,-6.74658203125,8.22802734375,-1.78173828125
0.172,-7.42724609375,7.30712890625,-0.14013671875
0.1725,-8.18798828125,6.42626953125,1.46142578125
0.173,-8.78857421875,5.58544921875,2.94287109375
0.1735,-8.78857421875,4.10400390625,4.50439453125
0.174,-8.18798828125,2.38232421875,5.66552734375
0.1745,-7.66748046875,0.62060546875,6.86669921875
0.175,-6.50634765625,-1.18115234375,7.46728515625
0.1755,-5.54541015625,-2.94287109375,8.30810546875
0.176,-4.14404296875,-4.54443359375,8.46826171875
0.1765,-2.54248046875,-5.90576171875,8.18798828125
0.177,-1.10107421875,-7.06689453125,7.86767578125
0.1775,0.54052734375,-7.98779296875,7.22705078125
0.178,2.14208984375,-8.66845703125,6.42626953125
0.1785,3.54345703125,-9.30908203125,5.70556640625
0.179,4.82470703125,-9.30908203125,4.50439453125
0.1795,5.82568359375,-8.78857421875,3.06298828125
0.18,6.90673828125,-8.26806640625,1.54150390625
0.1805,7.38720703125,-7.30712890625,0.02001953125
0.181,8.22802734375,-6.66650390625,-1.54150390625
0.1815,8.70849609375,-5.70556640625,-2.98291015625
0.182,8.50830078125,-4.14404296875,-4.42431640625
0.1825,8.02783203125,-2.58251953125,-5.46533203125
0.183,7.42724609375,-0.90087890625,-6.54638671875
0.1835,6.50634765625,0.82080078125,-7.30712890625
0.184,5.70556640625,2.50244140625,-8.14794921875
0.1845,4.14404296875,4.02392578125,-8.14794921875
0.185,2.70263671875,5.26513671875,-7.98779296875
0.1855,1.30126953125,6.46630859375,-7.78759765625
0.186,-0.26025390625,7.38720703125,-7.14697265625
0.1865,-1.78173828125,8.22802734375,-6.54638671875
0.187,-3.14306640625,8.70849609375,-5.70556640625
0.1875,-4.42431640625,8.58837890625,-4.34423828125
0.188,-5.42529296875,8.22802734375,-3.02294921875
0.1885,-6.46630859375,7.70751953125,-1.46142578125
0.189,-7.18701171875,6.86669921875,0.06005859375
0.1895,-8.10791015625,6.26611328125,1.54150390625
0.19,-8.46826171875,5.18505859375,3.06298828125
0.1905,-8.14794921875,3.58349609375,4.34423828125
0.191,-7.82763671875,1.98193359375,5.66552734375
0.1915,-7.06689453125,0.34033203125,6.54638671875
0.192,-6.26611328125,-1.42138671875,7.42724609375
0.1925,-5.14501953125,-3.10302734375,7.98779296875
0.193,-3.70361328125,-4.62451171875,7.98779296875
0.1935,-2.30224609375,-5.82568359375,7.82763671875
0.194,-0.82080078125,-6.98681640625,7.58740234375
0.1945,0.74072265625,-7.74755859375,6.90673828125
0.195,2.22216796875,-8.66845703125,6.38623046875
0.1955,3.54345703125,-8.98876953125,5.42529296875
0.196,4.70458984375,-8.74853515625,4.10400390625
0.1965,5.74560546875,-8.38818359375,2.70263671875
0.197,6.58642578125,-7.70751953125,1.26123046875
0.1975,7.42724609375,-7.10693359375,-0.26025390625
0.198,8.26806640625,-6.50634765625,-1.70166015625
0.1985,8.42822265625,-5.18505859375,-3.18310546875
0.199,8.06787109375,-3.70361328125,-4.38427734375
