wavelength,x,y,z
0.0,9.5843505859375,-4.2691650390625,-5.3101806640625
0.0005,8.9837646484375,-2.3072509765625,-6.5113525390625
0.001,8.1829833984375,-0.6256103515625,-7.6324462890625
0.0015,7.0218505859375,1.4964599609375,-8.5533447265625
0.002,5.7406005859375,3.6986083984375,-9.3541259765625
0.0025,4.2991943359375,5.1400146484375,-9.4342041015625
0.003,2.4974365234375,6.5814208984375,-9.0338134765625
0.0035,0.7757568359375,7.6624755859375,-8.3531494140625
0.004,-1.0260009765625,8.6634521484375,-7.7525634765625
0.0045,-3.1480712890625,9.4642333984375,-6.4713134765625
0.005,-4.6695556640625,9.9447021484375,-5.4703369140625
0.0055,-5.8306884765625,9.7445068359375,-4.1490478515625
0.006,-6.9117431640625,9.0638427734375,-2.4674072265625
0.0065,-7.8326416015625,8.3031005859375,-0.7857666015625
0.007,-8.6734619140625,7.1820068359375,1.2161865234375
0.0075,-9.3541259765625,5.8206787109375,3.2181396484375
0.008,-9.5543212890625,4.8197021484375,4.4993896484375
0.0085,-9.3541259765625,3.0980224609375,5.9407958984375
0.009,-8.5133056640625,1.2161865234375,7.0618896484375
0.0095,-7.7525634765625,-0.7056884765625,8.1829833984375
0.01,-6.3111572265625,-2.9078369140625,8.9837646484375
0.0105,-5.0699462890625,-4.8297119140625,9.6243896484375
0.011,-3.3082275390625,-6.2310791015625,9.2640380859375
0.0115,-1.5865478515625,-7.5123291015625,8.8236083984375
0.012,0.1751708984375,-8.4732666015625,8.1429443359375
0.0125,1.9769287109375,-9.4342041015625,7.3021240234375
0.013,4.0589599609375,-10.194946289062,6.0609130859375
0.0135,5.3802490234375,-10.355102539062,4.9798583984375
0.014,6.5413818359375,-9.9547119140625,3.5384521484375
0.0145,7.4622802734375,-9.1939697265625,1.8568115234375
0.015,8.3831787109375,-8.3131103515625,0.0550537109375
0.0155,9.0638427734375,-7.0318603515625,-1.9869384765625
0.016,9.7044677734375,-5.9107666015625,-3.7486572265625
0.0165,9.6644287109375,-4.7496337890625,-4.9498291015625
0.017,9.3040771484375,-2.9879150390625,-6.3912353515625
0.0175,8.3831787109375,-1.1461181640625,-7.3922119140625
0.018,7.5823974609375,0.9359130859375,-8.4332275390625
0.0185,6.1009521484375,3.1781005859375,-9.2340087890625
0.019,4.8197021484375,4.8597412109375,-9.6343994140625
0.0195,3.0179443359375,6.2611083984375,-9.2340087890625
0.02,1.2962646484375,7.4222412109375,-8.6734619140625
0.0205,-0.4654541015625,8.3831787109375,-7.9927978515625
0.021,-2.4273681640625,9.2640380859375,-6.9117431640625
0.0215,-4.3492431640625,9.9847412109375,-5.8306884765625
0.022,-5.4703369140625,9.7845458984375,-4.5894775390625
0.0225,-6.7115478515625,9.4241943359375,-3.0279541015625
0.023,-7.5123291015625,8.5032958984375,-1.3062744140625
0.0235,-8.4732666015625,7.6624755859375,0.5355224609375
0.024,-9.1138916015625,6.2210693359375,2.5775146484375
0.0245,-9.6343994140625,5.1800537109375,4.1390380859375
0.025,-9.3941650390625,3.8187255859375,5.3402099609375
0.0255,-8.8336181640625,1.8968505859375,6.7015380859375
0.026,-7.9927978515625,0.0950927734375,7.7025146484375
0.0265,-6.9517822265625,-1.9468994140625,8.6234130859375
0.027,-5.4703369140625,-4.1490478515625,9.3841552734375
0.0275,-3.9888916015625,-5.6304931640625,9.3040771484375
0.028,-2.2271728515625,-6.9117431640625,8.9036865234375
0.0285,-0.5855712890625,-7.9527587890625,8.3031005859375
0.029,1.1761474609375,-8.9136962890625,7.6224365234375
0.0295,3.1380615234375,-9.6343994140625,6.4613037109375
0.03,4.6995849609375,-10.194946289062,5.4603271484375
0.0305,5.7005615234375,-9.8746337890625,4.2191162109375
0.031,6.8616943359375,-9.3941650390625,2.6575927734375
0.0315,7.6224365234375,-8.4732666015625,0.9759521484375
0.032,8.4632568359375,-7.5523681640625,-0.8258056640625
0.0325,9.1038818359375,-6.3111572265625,-2.7076416015625
0.033,9.4642333984375,-5.4302978515625,-3.9888916015625
0.0335,9.1839599609375,-3.9888916015625,-5.2701416015625
0.034,8.5032958984375,-2.1070556640625,-6.3912353515625
0.0345,7.7425537109375,-0.3453369140625,-7.4322509765625
0.035,6.6614990234375,1.6566162109375,-8.3131103515625
0.0355,5.5404052734375,3.5384521484375,-9.0338134765625
0.036,4.1390380859375,4.7796630859375,-8.8336181640625
0.0365,2.4173583984375,6.1009521484375,-8.5133056640625
0.037,0.8958740234375,7.0618896484375,-7.9927978515625
0.0375,-0.7857666015625,8.1029052734375,-7.3922119140625
0.038,-2.5875244140625,8.9036865234375,-6.3912353515625
0.0385,-3.8687744140625,9.2640380859375,-5.5904541015625
0.039,-4.8697509765625,8.9437255859375,-4.3092041015625
0.0395,-5.9508056640625,8.4632568359375,-2.8277587890625
0.04,-6.9117431640625,7.7425537109375,-1.2261962890625
0.0405,-7.7125244140625,6.8616943359375,0.5755615234375
0.041,-8.4732666015625,6.0609130859375,2.1771240234375
0.0415,-8.7135009765625,5.1400146484375,3.2581787109375
0.042,-8.5133056640625,3.6986083984375,4.6195068359375
0.0425,-7.9527587890625,1.9368896484375,5.7806396484375
0.043,-7.3521728515625,0.1751708984375,7.0218505859375
0.0435,-6.3912353515625,-1.6666259765625,7.7825927734375
0.044,-5.4703369140625,-3.1881103515625,8.4632568359375
0.0445,-4.0289306640625,-4.4693603515625,8.2630615234375
0.045,-2.5474853515625,-5.7506103515625,8.0228271484375
0.0455,-1.1060791015625,-6.7916259765625,7.7025146484375
0.046,0.5755615234375,-7.8326416015625,7.1419677734375
0.0465,2.0570068359375,-8.7135009765625,6.5413818359375
0.047,3.0980224609375,-9.0338134765625,5.8607177734375
0.0475,4.2591552734375,-8.8336181640625,4.6195068359375
0.048,5.3402099609375,-8.4732666015625,3.1781005859375
0.0485,6.5013427734375,-7.9927978515625,1.5765380859375
0.049,7.3421630859375,-7.2720947265625,0.0550537109375
0.0495,8.2230224609375,-6.8316650390625,-1.3863525390625
0.05,8.4632568359375,-5.8306884765625,-2.5474853515625
0.0505,8.3031005859375,-4.3492431640625,-3.9888916015625
0.051,7.9027099609375,-2.7476806640625,-5.1500244140625
0.0515,7.4222412109375,-0.9859619140625,-6.4312744140625
0.052,6.7015380859375,0.7357177734375,-7.4322509765625
0.0525,5.9407958984375,2.1771240234375,-8.0728759765625
0.053,4.4993896484375,3.5384521484375,-7.9927978515625
0.0535,3.0579833984375,4.8597412109375,-7.9127197265625
0.054,1.5765380859375,6.1810302734375,-7.7125244140625
0.0545,0.0150146484375,7.2220458984375,-7.2720947265625
0.055,-1.4263916015625,8.1829833984375,-6.8316650390625
0.0555,-2.5474853515625,8.3831787109375,-6.0308837890625
0.056,-3.8687744140625,8.3031005859375,-4.6695556640625
0.0565,-5.0699462890625,7.9827880859375,-3.1881103515625
0.057,-6.3111572265625,7.5023193359375,-1.5865478515625
0.0575,-7.2320556640625,6.9017333984375,0.0150146484375
0.058,-8.0728759765625,6.4212646484375,1.3763427734375
0.0585,-8.2330322265625,5.2601318359375,2.6976318359375
0.059,-8.0328369140625,3.6986083984375,4.1390380859375
0.0595,-7.7125244140625,1.9368896484375,5.5804443359375
0.06,-7.0718994140625,0.1751708984375,6.7015380859375
0.0605,-6.3912353515625,-1.5865478515625,7.7025146484375
0.061,-5.2701416015625,-2.9879150390625,7.9827880859375
0.0615,-3.7886962890625,-4.5093994140625,7.9827880859375
0.062,-2.3472900390625,-5.7506103515625,7.8626708984375
0.0625,-0.7056884765625,-7.0718994140625,7.5823974609375
0.063,0.9359130859375,-8.0728759765625,7.0618896484375
0.0635,2.2972412109375,-8.8336181640625,6.4212646484375
0.064,3.4583740234375,-8.8736572265625,5.3802490234375
0.0645,4.7796630859375,-8.6734619140625,3.8988037109375
0.065,5.9407958984375,-8.2730712890625,2.3773193359375
0.0655,7.0618896484375,-7.6724853515625,0.6156005859375
0.066,8.0228271484375,-6.9918212890625,-0.9859619140625
0.0665,8.5833740234375,-6.2711181640625,-2.2672119140625
0.067,8.5433349609375,-4.7896728515625,-3.7886962890625
0.0675,8.1829833984375,-3.1080322265625,-5.1099853515625
0.068,7.7025146484375,-1.2662353515625,-6.4312744140625
0.0685,6.8616943359375,0.6556396484375,-7.5123291015625
0.069,5.9808349609375,2.4173583984375,-8.3531494140625
0.0695,4.5394287109375,3.8187255859375,-8.3131103515625
0.07,2.9378662109375,5.3402099609375,-8.1929931640625
0.0705,1.4163818359375,6.5013427734375,-7.9127197265625
0.071,-0.3853759765625,7.7025146484375,-7.3521728515625
0.0715,-2.2271728515625,8.6634521484375,-6.5914306640625
0.072,-3.5484619140625,8.9837646484375,-5.6304931640625
0.0725,-4.7896728515625,8.7835693359375,-4.2291259765625
0.073,-5.9508056640625,8.3031005859375,-2.6275634765625
0.0735,-7.0718994140625,7.6624755859375,-0.9459228515625
0.074,-7.9927978515625,6.7015380859375,1.0159912109375
0.0745,-8.7935791015625,5.8206787109375,2.6976318359375
0.075,-8.8336181640625,4.6595458984375,3.8988037109375
0.0755,-8.5933837890625,2.8978271484375,5.4603271484375
0.076,-7.9527587890625,1.0960693359375,6.6214599609375
0.0765,-7.1920166015625,-0.8658447265625,7.8226318359375
0.077,-5.9107666015625,-3.0279541015625,8.6634521484375
0.0775,-4.5093994140625,-4.7095947265625,8.9437255859375
0.078,-2.7476806640625,-6.0709228515625,8.5833740234375
0.0785,-1.1861572265625,-7.3121337890625,8.2630615234375
0.079,0.5755615234375,-8.3531494140625,7.6224365234375
0.0795,2.4974365234375,-9.2740478515625,6.7015380859375
0.08,4.3392333984375,-9.9947509765625,5.7005615234375
0.0805,5.4202880859375,-9.7545166015625,4.3392333984375
0.081,6.7015380859375,-9.4342041015625,2.7376708984375
0.0815,7.5423583984375,-8.5933837890625,1.0560302734375
0.082,8.4632568359375,-7.6324462890625,-0.7857666015625
0.0825,9.2239990234375,-6.3511962890625,-2.8277587890625
0.083,9.6243896484375,-5.1900634765625,-4.4293212890625
0.0835,9.2640380859375,-3.6685791015625,-5.6304931640625
0.084,8.7435302734375,-1.8267822265625,-6.9517822265625
0.0845,7.8226318359375,0.0550537109375,-7.8326416015625
0.085,6.7015380859375,2.1370849609375,-8.8336181640625
0.0855,5.2601318359375,4.4193115234375,-9.6343994140625
0.086,3.5384521484375,5.8206787109375,-9.3541259765625
0.0865,1.7366943359375,7.1820068359375,-8.8736572265625
0.087,0.0950927734375,8.1829833984375,-8.2730712890625
0.0875,-1.8267822265625,9.1038818359375,-7.3922119140625
0.088,-3.8687744140625,9.9046630859375,-6.1510009765625
0.0885,-5.5904541015625,10.305053710938,-4.9097900390625
0.089,-6.5914306640625,9.4642333984375,-3.1881103515625
0.0895,-7.7525634765625,8.9837646484375,-1.5865478515625
0.09,-8.4732666015625,7.8626708984375,0.2952880859375
0.0905,-9.2340087890625,6.7015380859375,2.2171630859375
0.091,-9.8746337890625,5.3001708984375,4.3392333984375
0.0915,-9.7545166015625,3.8587646484375,5.7005615234375
0.092,-9.1539306640625,2.0570068359375,6.9017333984375
0.0925,-8.3531494140625,0.1751708984375,8.0228271484375
0.093,-7.2720947265625,-1.7867431640625,8.8236083984375
0.0935,-5.9107666015625,-3.9888916015625,9.5843505859375
0.094,-4.1890869140625,-6.1109619140625,10.024780273438
0.0945,-2.2271728515625,-7.2720947265625,9.2239990234375
0.095,-0.5054931640625,-8.5133056640625,8.7835693359375
0.0955,1.2562255859375,-9.2740478515625,7.8626708984375
0.096,3.1380615234375,-9.9947509765625,6.7816162109375
0.0965,5.1400146484375,-10.795532226562,5.5804443359375
0.097,6.4613037109375,-10.675415039062,4.1390380859375
0.0975,7.4622802734375,-9.7945556640625,2.4173583984375
0.098,8.4232177734375,-9.0338134765625,0.7757568359375
0.0985,8.9837646484375,-7.8326416015625,-1.1060791015625
0.099,9.6243896484375,-6.5914306640625,-2.9478759765625
0.0995,10.144897460938,-5.1900634765625,-4.9097900390625
0.1,9.6243896484375,-3.5885009765625,-6.0308837890625
0.1005,9.1038818359375,-1.8668212890625,-7.2320556640625
0.101,8.0628662109375,0.0150146484375,-8.0328369140625
0.1015,7.0618896484375,1.9368896484375,-8.9136962890625
0.102,5.6204833984375,4.0189208984375,-9.6343994140625
0.1025,4.0189208984375,5.7806396484375,-9.7545166015625
0.103,2.0570068359375,6.9017333984375,-8.9136962890625
0.1035,0.4954833984375,8.0228271484375,-8.4732666015625
0.104,-1.2662353515625,8.7435302734375,-7.5523681640625
0.1045,-3.0679931640625,9.5443115234375,-6.5914306640625
0.105,-4.8697509765625,10.104858398438,-5.4302978515625
0.1055,-5.9508056640625,9.5843505859375,-3.9488525390625
0.106,-6.9918212890625,9.0238037109375,-2.3472900390625
0.1065,-7.8326416015625,8.1829833984375,-0.7056884765625
0.107,-8.5533447265625,7.1419677734375,1.0960693359375
0.1075,-9.1138916015625,5.9808349609375,2.8978271484375
0.108,-9.5543212890625,4.7796630859375,4.4993896484375
0.1085,-8.9537353515625,3.1781005859375,5.5003662109375
0.109,-8.5133056640625,1.4564208984375,6.8616943359375
0.1095,-7.5123291015625,-0.3453369140625,7.6624755859375
0.11,-6.6715087890625,-2.1871337890625,8.5433349609375
0.1105,-5.2701416015625,-4.1490478515625,9.1439208984375
0.111,-3.6685791015625,-5.5504150390625,8.9837646484375
0.1115,-1.9468994140625,-6.7115478515625,8.4232177734375
0.112,-0.5054931640625,-7.7125244140625,8.0228271484375
0.1125,1.1761474609375,-8.5533447265625,7.2620849609375
0.113,2.7777099609375,-9.3541259765625,6.4212646484375
0.1135,4.3392333984375,-9.9146728515625,5.4202880859375
0.114,5.2601318359375,-9.3541259765625,4.0189208984375
0.1145,6.4212646484375,-8.9537353515625,2.6175537109375
0.115,7.1419677734375,-8.0728759765625,1.0560302734375
0.1155,8.0628662109375,-7.3121337890625,-0.6656494140625
0.116,8.7034912109375,-6.3912353515625,-2.2672119140625
0.1165,8.9837646484375,-5.3902587890625,-3.5885009765625
0.117,8.6634521484375,-3.9488525390625,-4.7095947265625
0.1175,8.2230224609375,-2.2672119140625,-6.0308837890625
0.118,7.5023193359375,-0.6256103515625,-6.9117431640625
0.1185,6.7015380859375,1.2562255859375,-7.9527587890625
0.119,5.6204833984375,3.0579833984375,-8.6334228515625
0.1195,4.1390380859375,4.2591552734375,-8.3531494140625
0.12,2.6175537109375,5.6204833984375,-8.1929931640625
0.1205,1.1761474609375,6.6614990234375,-7.8326416015625
0.121,-0.4654541015625,7.6224365234375,-7.3121337890625
0.1215,-2.0670166015625,8.5032958984375,-6.5914306640625
0.122,-3.3482666015625,8.8236083984375,-5.7105712890625
0.1225,-4.3492431640625,8.5032958984375,-4.3492431640625
0.123,-5.6304931640625,8.3031005859375,-2.9078369140625
0.1235,-6.5513916015625,7.5823974609375,-1.3463134765625
0.124,-7.5523681640625,6.9017333984375,0.3753662109375
0.1245,-8.3131103515625,6.1409912109375,1.9368896484375
0.125,-8.4732666015625,5.0999755859375,3.0980224609375
0.1255,-8.3131103515625,3.5784912109375,4.4993896484375
0.126,-7.7926025390625,1.8968505859375,5.7406005859375
0.1265,-7.2320556640625,0.1351318359375,6.9017333984375
0.127,-6.3912353515625,-1.6666259765625,7.8226318359375
0.1275,-5.2301025390625,-3.3482666015625,8.3031005859375
0.128,-3.7886962890625,-4.5494384765625,8.0228271484375
0.1285,-2.2672119140625,-5.9908447265625,8.0228271484375
0.129,-0.8258056640625,-7.0718994140625,7.6224365234375
0.1295,0.8157958984375,-8.1929931640625,7.1019287109375
0.13,2.4173583984375,-8.9937744140625,6.4212646484375
0.1305,3.5784912109375,-9.0338134765625,5.4603271484375
0.131,4.7796630859375,-8.8336181640625,4.0989990234375
0.1315,5.9007568359375,-8.3931884765625,2.5775146484375
0.132,6.9818115234375,-7.7926025390625,0.9759521484375
0.1325,7.9027099609375,-7.1119384765625,-0.7056884765625
0.133,8.6234130859375,-6.3111572265625,-2.2672119140625
0.1335,8.5833740234375,-5.1099853515625,-3.4683837890625
0.134,8.4232177734375,-3.4683837890625,-4.9498291015625
0.1345,7.7825927734375,-1.7467041015625,-6.1109619140625
0.135,7.2220458984375,0.1351318359375,-7.3521728515625
0.1355,6.3011474609375,1.9769287109375,-8.2730712890625
0.136,4.9798583984375,3.5384521484375,-8.4732666015625
0.1365,3.3382568359375,4.8997802734375,-8.1929931640625
0.137,1.8568115234375,6.2210693359375,-8.0728759765625
0.1375,0.2552490234375,7.2620849609375,-7.5924072265625
0.138,-1.5064697265625,8.3031005859375,-6.9918212890625
0.1385,-3.1881103515625,9.1038818359375,-6.1109619140625
0.139,-4.3492431640625,8.8236083984375,-4.7095947265625
0.1395,-5.7105712890625,8.6634521484375,-3.1881103515625
0.14,-6.6715087890625,7.9427490234375,-1.5865478515625
0.1405,-7.7125244140625,7.1820068359375,0.2552490234375
0.141,-8.5933837890625,6.2611083984375,2.0570068359375
0.1415,-8.9937744140625,5.0999755859375,3.5784912109375
0.142,-8.6334228515625,3.5784912109375,4.8597412109375
0.1425,-8.3131103515625,1.7767333984375,6.3812255859375
0.143,-7.4322509765625,-0.1451416015625,7.3421630859375
0.1435,-6.5914306640625,-1.9869384765625,8.3831787109375
0.144,-5.1500244140625,-4.1090087890625,9.0238037109375
0.1445,-3.4683837890625,-5.5504150390625,8.7835693359375
0.145,-1.7867431640625,-6.9517822265625,8.4632568359375
0.1455,-0.1851806640625,-8.0328369140625,7.9827880859375
0.146,1.6966552734375,-8.9537353515625,7.1019287109375
0.1465,3.4984130859375,-9.7945556640625,6.2611083984375
0.147,5.0999755859375,-10.114868164062,5.0198974609375
0.1475,6.1810302734375,-9.4742431640625,3.3382568359375
0.148,7.4222412109375,-9.0338134765625,1.7366943359375
0.1485,8.1829833984375,-7.9927978515625,-0.1851806640625
0.149,8.9837646484375,-6.9918212890625,-1.9869384765625
0.1495,9.7044677734375,-5.7506103515625,-3.9088134765625
0.15,9.5443115234375,-4.1890869140625,-5.3502197265625
0.1505,8.9837646484375,-2.4273681640625,-6.5914306640625
0.151,8.3031005859375,-0.5855712890625,-7.7125244140625
0.1515,7.1419677734375,1.4964599609375,-8.5933837890625
0.152,5.9407958984375,3.4984130859375,-9.4342041015625
0.1525,4.3392333984375,5.5404052734375,-9.7945556640625
0.153,2.2972412109375,6.7015380859375,-8.9937744140625
0.1535,0.6156005859375,8.0228271484375,-8.6734619140625
0.154,-1.3062744140625,8.9036865234375,-7.7125244140625
0.1545,-3.2681884765625,9.7044677734375,-6.5513916015625
0.155,-5.1500244140625,10.385131835938,-5.4302978515625
0.1555,-6.4713134765625,10.104858398438,-3.8687744140625
0.156,-7.4722900390625,9.2239990234375,-2.0670166015625
0.1565,-8.4732666015625,8.4632568359375,-0.3453369140625
0.157,-9.1138916015625,7.0618896484375,1.7767333984375
0.1575,-9.7144775390625,5.9007568359375,3.5384521484375
0.158,-10.154907226562,4.4993896484375,5.4202880859375
0.1585,-9.4742431640625,2.5775146484375,6.6614990234375
0.159,-8.7935791015625,0.7357177734375,7.8626708984375
0.1595,-7.6724853515625,-1.2662353515625,8.6634521484375
0.16,-6.3511962890625,-3.3883056640625,9.4642333984375
0.1605,-4.8697509765625,-5.3502197265625,9.9447021484375
0.161,-2.9879150390625,-7.0718994140625,9.7845458984375
0.1615,-1.0260009765625,-8.0728759765625,8.8636474609375
0.162,0.6556396484375,-9.2340087890625,8.3431396484375
0.1625,2.6575927734375,-9.8345947265625,7.0618896484375
0.163,4.4193115234375,-10.475219726562,5.9808349609375
0.1635,6.1009521484375,-10.835571289062,4.7796630859375
0.164,7.0618896484375,-10.074829101562,3.0980224609375
0.1645,8.0228271484375,-9.3140869140625,1.4163818359375
0.165,8.7435302734375,-8.2730712890625,-0.3853759765625
0.1655,9.2640380859375,-6.9117431640625,-2.2672119140625
0.166,9.7845458984375,-5.8306884765625,-3.8687744140625
0.1665,9.9447021484375,-4.4293212890625,-5.5904541015625
0.167,9.1038818359375,-2.5474853515625,-6.5513916015625
0.1675,8.5433349609375,-0.8258056640625,-7.7125244140625
0.168,7.3021240234375,1.1361083984375,-8.3531494140625
0.1685,6.2210693359375,2.9378662109375,-9.1138916015625
0.169,4.8597412109375,4.7396240234375,-9.6343994140625
0.1695,3.0579833984375,6.1409912109375,-9.1939697265625
0.17,1.2962646484375,7.1820068359375,-8.5133056640625
0.1705,-0.3052978515625,8.2230224609375,-7.9527587890625
0.171,-2.1070556640625,8.9437255859375,-6.8717041015625
0.1715,-3.6285400390625,9.5443115234375,-6.0709228515625
0.172,-5.1500244140625,9.7845458984375,-4.8697509765625
0.1725,-6.0308837890625,8.9837646484375,-3.2281494140625
0.173,-7.1519775390625,8.5032958984375,-1.7066650390625
0.1735,-7.7525634765625,7.4622802734375,0.0150146484375
0.174,-8.5133056640625,6.5413818359375,1.6566162109375
0.1745,-9.0738525390625,5.5804443359375,3.2181396484375
0.175,-9.0338134765625,4.1390380859375,4.6195068359375
0.1755,-8.4732666015625,2.5775146484375,5.7005615234375
0.176,-7.9527587890625,0.7757568359375,6.9417724609375
0.1765,-6.9517822265625,-0.9859619140625,7.7025146484375
0.177,-6.1510009765625,-2.6676025390625,8.5032958984375
0.1775,-4.7496337890625,-4.4293212890625,8.8236083984375
0.178,-3.0679931640625,-5.6304931640625,8.3431396484375
