wavelength,x,y,z
0.0,6.716552734375,1.671630859375,-8.298095703125
0.0005,5.235107421875,3.873779296875,-9.098876953125
0.001,3.673583984375,5.395263671875,-8.978759765625
0.0015,1.951904296875,6.836669921875,-8.698486328125
0.002,0.390380859375,7.797607421875,-8.137939453125
0.0025,-1.251220703125,8.718505859375,-7.457275390625
0.003,-3.173095703125,9.399169921875,-6.256103515625
0.0035,-4.934814453125,9.959716796875,-5.135009765625
0.004,-6.095947265625,9.479248046875,-3.573486328125
0.0045,-7.297119140625,9.078857421875,-2.052001953125
0.005,-7.977783203125,8.037841796875,-0.410400390625
0.0055,-8.618408203125,6.996826171875,1.351318359375
0.006,-9.259033203125,5.635498046875,3.393310546875
0.0065,-9.459228515625,4.474365234375,4.834716796875
0.007,-9.098876953125,2.752685546875,6.236083984375
0.0075,-8.298095703125,0.910888671875,7.277099609375
0.008,-7.417236328125,-0.970947265625,8.157958984375
0.0085,-5.975830078125,-3.012939453125,8.758544921875
0.009,-4.494384765625,-5.135009765625,9.359130859375
0.0095,-2.612548828125,-6.536376953125,8.918701171875
0.01,-1.010986328125,-7.817626953125,8.678466796875
0.0105,0.630615234375,-8.618408203125,7.837646484375
0.011,2.312255859375,-9.379150390625,6.996826171875
0.0115,4.354248046875,-10.099853515625,5.755615234375
0.012,5.755615234375,-10.219970703125,4.554443359375
0.0125,6.916748046875,-9.739501953125,2.952880859375
0.013,7.797607421875,-9.058837890625,1.431396484375
0.0135,8.478271484375,-8.057861328125,-0.290283203125
0.014,8.958740234375,-6.816650390625,-2.011962890625
0.0145,9.639404296875,-5.575439453125,-3.933837890625
0.015,9.479248046875,-4.254150390625,-5.135009765625
0.0155,8.998779296875,-2.412353515625,-6.576416015625
0.016,8.077880859375,-0.690673828125,-7.377197265625
0.0165,7.156982421875,1.111083984375,-8.258056640625
0.017,5.675537109375,3.193115234375,-8.858642578125
0.0175,4.234130859375,5.074951171875,-9.299072265625
0.018,2.392333984375,6.436279296875,-8.698486328125
0.0185,0.910888671875,7.637451171875,-8.418212890625
0.019,-0.770751953125,8.438232421875,-7.697509765625
0.0195,-2.452392578125,9.118896484375,-6.736572265625
0.02,-4.494384765625,9.959716796875,-5.535400390625
0.0205,-5.735595703125,9.679443359375,-4.134033203125
0.021,-7.016845703125,9.279052734375,-2.572509765625
0.0215,-7.737548828125,8.398193359375,-0.970947265625
0.022,-8.458251953125,7.437255859375,0.750732421875
0.0225,-8.978759765625,6.115966796875,2.592529296875
0.023,-9.619384765625,4.954833984375,4.434326171875
0.0235,-9.218994140625,3.353271484375,5.635498046875
0.024,-8.658447265625,1.511474609375,7.036865234375
0.0245,-7.697509765625,-0.330322265625,7.797607421875
0.025,-6.616455078125,-2.172119140625,8.558349609375
0.0255,-5.054931640625,-4.454345703125,9.198974609375
0.026,-3.333251953125,-6.055908203125,9.158935546875
0.0265,-1.571533203125,-7.377197265625,8.718505859375
0.027,0.030029296875,-8.298095703125,8.197998046875
0.0275,1.671630859375,-9.138916015625,7.397216796875
0.028,3.553466796875,-9.779541015625,6.276123046875
0.0285,5.395263671875,-10.460205078125,5.074951171875
0.029,6.436279296875,-9.859619140625,3.513427734375
0.0295,7.637451171875,-9.459228515625,1.951904296875
0.03,8.238037109375,-8.378173828125,0.350341796875
0.0305,8.838623046875,-7.377197265625,-1.331298828125
0.031,9.399169921875,-6.015869140625,-3.293212890625
0.0315,9.639404296875,-4.774658203125,-4.814697265625
0.032,9.198974609375,-3.052978515625,-6.095947265625
0.0325,8.478271484375,-1.291259765625,-7.217041015625
0.033,7.517333984375,0.510498046875,-7.977783203125
0.0335,6.276123046875,2.352294921875,-8.658447265625
0.034,4.834716796875,4.634521484375,-9.339111328125
0.0345,2.952880859375,6.035888671875,-8.938720703125
0.035,1.311279296875,7.397216796875,-8.658447265625
0.0355,-0.290283203125,8.238037109375,-7.977783203125
0.036,-1.931884765625,8.998779296875,-7.096923828125
0.0365,-3.893798828125,9.679443359375,-5.935791015625
0.037,-5.495361328125,9.959716796875,-4.654541015625
0.0375,-6.576416015625,9.359130859375,-3.012939453125
0.038,-7.657470703125,8.838623046875,-1.451416015625
0.0385,-8.258056640625,7.717529296875,0.270263671875
0.039,-8.818603515625,6.596435546875,1.951904296875
0.0395,-9.539306640625,5.315185546875,3.993896484375
0.04,-9.339111328125,3.873779296875,5.315185546875
0.0405,-8.898681640625,1.991943359375,6.676513671875
0.041,-8.017822265625,0.230224609375,7.557373046875
0.0415,-7.056884765625,-1.611572265625,8.358154296875
0.042,-5.575439453125,-3.573486328125,8.998779296875
0.0425,-3.973876953125,-5.615478515625,9.359130859375
0.043,-2.092041015625,-6.856689453125,8.718505859375
0.0435,-0.570556640625,-8.097900390625,8.478271484375
0.044,1.111083984375,-8.818603515625,7.637451171875
0.0445,2.832763671875,-9.539306640625,6.676513671875
0.045,4.794677734375,-10.300048828125,5.475341796875
0.0455,6.035888671875,-10.059814453125,4.114013671875
0.046,7.156982421875,-9.539306640625,2.552490234375
0.0465,7.917724609375,-8.698486328125,0.990966796875
0.047,8.518310546875,-7.697509765625,-0.730712890625
0.0475,8.998779296875,-6.496337890625,-2.412353515625
0.048,9.639404296875,-5.255126953125,-4.254150390625
0.0485,9.198974609375,-3.813720703125,-5.415283203125
0.049,8.678466796875,-2.011962890625,-6.696533203125
0.0495,7.717529296875,-0.330322265625,-7.457275390625
0.05,6.796630859375,1.471435546875,-8.218017578125
0.0505,5.395263671875,3.593505859375,-8.898681640625
0.051,3.833740234375,5.275146484375,-8.978759765625
0.0515,2.072021484375,6.516357421875,-8.498291015625
0.052,0.630615234375,7.637451171875,-8.137939453125
0.0525,-1.010986328125,8.398193359375,-7.417236328125
0.053,-2.652587890625,9.078857421875,-6.456298828125
0.0535,-4.574462890625,9.799560546875,-5.375244140625
0.054,-5.695556640625,9.279052734375,-3.813720703125
0.0545,-6.896728515625,8.998779296875,-2.372314453125
0.055,-7.617431640625,8.037841796875,-0.770751953125
0.0555,-8.298095703125,7.116943359375,0.910888671875
0.056,-8.898681640625,5.915771484375,2.712646484375
0.0565,-9.299072265625,4.714599609375,4.354248046875
0.057,-8.818603515625,3.072998046875,5.595458984375
0.0575,-8.298095703125,1.271240234375,6.876708984375
0.058,-7.377197265625,-0.450439453125,7.637451171875
0.0585,-6.336181640625,-2.252197265625,8.358154296875
0.059,-4.854736328125,-4.414306640625,9.038818359375
0.0595,-3.133056640625,-5.815673828125,8.718505859375
0.06,-1.531494140625,-7.177001953125,8.478271484375
0.0605,0.030029296875,-8.057861328125,7.877685546875
0.061,1.671630859375,-8.898681640625,7.116943359375
0.0615,3.433349609375,-9.619384765625,6.115966796875
0.062,5.114990234375,-10.059814453125,4.994873046875
0.0625,6.115966796875,-9.459228515625,3.433349609375
0.063,7.237060546875,-9.058837890625,1.951904296875
0.0635,7.877685546875,-8.057861328125,0.350341796875
0.064,8.518310546875,-7.096923828125,-1.291259765625
0.0645,9.239013671875,-6.015869140625,-3.173095703125
0.065,9.279052734375,-4.654541015625,-4.534423828125
0.0655,8.798583984375,-3.012939453125,-5.815673828125
0.066,8.077880859375,-1.251220703125,-6.856689453125
0.0665,7.237060546875,0.510498046875,-7.697509765625
0.067,6.115966796875,2.432373046875,-8.378173828125
0.0675,4.634521484375,4.474365234375,-8.978759765625
0.068,2.872802734375,5.755615234375,-8.458251953125
0.0685,1.351318359375,7.076904296875,-8.338134765625
0.069,-0.210205078125,7.917724609375,-7.697509765625
0.0695,-1.811767578125,8.678466796875,-6.896728515625
0.07,-3.733642578125,9.519287109375,-5.895751953125
0.0705,-5.135009765625,9.519287109375,-4.534423828125
0.071,-6.296142578125,9.038818359375,-2.972900390625
0.0715,-7.297119140625,8.398193359375,-1.411376953125
0.072,-7.937744140625,7.437255859375,0.270263671875
0.0725,-8.618408203125,6.396240234375,1.951904296875
0.073,-9.339111328125,5.235107421875,3.873779296875
0.0735,-8.978759765625,3.593505859375,5.114990234375
0.074,-8.618408203125,1.951904296875,6.516357421875
0.0745,-7.697509765625,0.150146484375,7.397216796875
0.075,-6.696533203125,-1.651611328125,8.157958984375
0.0755,-5.335205078125,-3.733642578125,8.838623046875
0.076,-3.693603515625,-5.495361328125,8.998779296875
0.0765,-1.931884765625,-6.736572265625,8.478271484375
0.077,-0.450439453125,-7.937744140625,8.197998046875
0.0775,1.311279296875,-8.658447265625,7.317138671875
0.078,2.912841796875,-9.419189453125,6.436279296875
0.0785,4.834716796875,-10.139892578125,5.355224609375
0.079,5.955810546875,-9.659423828125,3.833740234375
0.0795,7.116943359375,-9.259033203125,2.272216796875
0.08,7.837646484375,-8.338134765625,0.710693359375
0.0805,8.478271484375,-7.417236328125,-0.970947265625
0.081,9.038818359375,-6.336181640625,-2.692626953125
0.0815,9.519287109375,-5.054931640625,-4.494384765625
0.082,8.958740234375,-3.293212890625,-5.615478515625
0.0825,8.438232421875,-1.571533203125,-6.856689453125
0.083,7.437255859375,0.190185546875,-7.537353515625
0.0835,6.436279296875,1.951904296875,-8.298095703125
0.084,5.074951171875,4.033935546875,-9.018798828125
0.0845,3.273193359375,5.635498046875,-8.818603515625
0.085,1.671630859375,6.916748046875,-8.458251953125
0.0855,0.150146484375,7.877685546875,-7.977783203125
0.086,-1.571533203125,8.638427734375,-7.096923828125
0.0865,-3.253173828125,9.319091796875,-6.135986328125
0.087,-5.054931640625,9.839599609375,-4.974853515625
0.0875,-6.135986328125,9.158935546875,-3.253173828125
0.088,-7.337158203125,8.798583984375,-1.771728515625
0.0885,-7.937744140625,7.677490234375,-0.130126953125
0.089,-8.578369140625,6.676513671875,1.591552734375
0.0895,-9.259033203125,5.475341796875,3.513427734375
0.09,-9.339111328125,4.073974609375,5.074951171875
0.0905,-8.698486328125,2.312255859375,6.276123046875
0.091,-8.097900390625,0.510498046875,7.437255859375
0.0915,-6.976806640625,-1.331298828125,8.117919921875
0.092,-5.775634765625,-3.173095703125,8.798583984375
0.0925,-4.174072265625,-5.295166015625,9.279052734375
0.093,-2.332275390625,-6.576416015625,8.678466796875
0.0935,-0.770751953125,-7.857666015625,8.398193359375
0.094,0.990966796875,-8.698486328125,7.637451171875
0.0945,2.672607421875,-9.419189453125,6.676513671875
0.095,4.514404296875,-10.099853515625,5.635498046875
0.0955,5.955810546875,-10.139892578125,4.234130859375
0.096,6.996826171875,-9.459228515625,2.592529296875
0.0965,7.997802734375,-8.858642578125,0.990966796875
0.097,8.478271484375,-7.697509765625,-0.730712890625
0.0975,9.038818359375,-6.656494140625,-2.332275390625
0.098,9.639404296875,-5.375244140625,-4.214111328125
0.0985,9.279052734375,-3.653564453125,-5.575439453125
0.099,8.678466796875,-1.931884765625,-6.696533203125
0.0995,7.797607421875,-0.170166015625,-7.617431640625
0.1,6.676513671875,1.671630859375,-8.298095703125
0.1005,5.475341796875,3.593505859375,-8.978759765625
0.101,3.793701171875,5.475341796875,-9.178955078125
0.1015,1.991943359375,6.716552734375,-8.578369140625
0.102,0.470458984375,7.877685546875,-8.258056640625
0.1025,-1.291259765625,8.638427734375,-7.337158203125
0.103,-2.972900390625,9.279052734375,-6.376220703125
0.1035,-4.814697265625,9.959716796875,-5.255126953125
0.104,-6.055908203125,9.519287109375,-3.693603515625
0.1045,-7.177001953125,8.958740234375,-2.092041015625
0.105,-7.977783203125,8.077880859375,-0.450439453125
0.1055,-8.498291015625,6.916748046875,1.311279296875
0.106,-9.098876953125,5.915771484375,2.992919921875
0.1065,-9.619384765625,4.554443359375,4.834716796875
0.107,-8.938720703125,2.712646484375,6.035888671875
0.1075,-8.458251953125,0.990966796875,7.317138671875
0.108,-7.297119140625,-0.930908203125,7.997802734375
0.1085,-6.095947265625,-2.732666015625,8.678466796875
0.109,-4.654541015625,-4.774658203125,9.198974609375
0.1095,-2.852783203125,-6.336181640625,8.998779296875
0.11,-1.171142578125,-7.537353515625,8.478271484375
0.1105,0.430419921875,-8.538330078125,7.957763671875
0.111,2.272216796875,-9.178955078125,6.836669921875
0.1115,3.873779296875,-9.819580078125,5.915771484375
0.112,5.555419921875,-10.340087890625,4.794677734375
0.1125,6.596435546875,-9.619384765625,3.113037109375
0.113,7.677490234375,-9.098876953125,1.591552734375
0.1135,8.238037109375,-8.057861328125,-0.170166015625
0.114,8.798583984375,-6.896728515625,-1.731689453125
0.1145,9.359130859375,-5.815673828125,-3.453369140625
0.115,9.479248046875,-4.334228515625,-5.094970703125
0.1155,8.758544921875,-2.572509765625,-6.135986328125
0.116,8.197998046875,-0.810791015625,-7.337158203125
0.1165,6.996826171875,0.990966796875,-7.897705078125
0.117,5.955810546875,2.792724609375,-8.658447265625
0.1175,4.474365234375,4.754638671875,-9.098876953125
0.118,2.632568359375,6.115966796875,-8.658447265625
0.1185,1.111083984375,7.317138671875,-8.298095703125
0.119,-0.570556640625,8.197998046875,-7.697509765625
0.1195,-2.252197265625,8.918701171875,-6.696533203125
0.12,-3.933837890625,9.559326171875,-5.735595703125
0.1205,-5.415283203125,9.639404296875,-4.454345703125
0.121,-6.456298828125,8.998779296875,-2.812744140625
0.1215,-7.537353515625,8.438232421875,-1.251220703125
0.122,-8.057861328125,7.317138671875,0.590576171875
0.1225,-8.698486328125,6.356201171875,2.112060546875
0.123,-9.339111328125,5.195068359375,3.913818359375
0.1235,-9.098876953125,3.553466796875,5.355224609375
0.124,-8.498291015625,1.791748046875,6.556396484375
0.1245,-7.697509765625,0.030029296875,7.557373046875
0.125,-6.496337890625,-1.931884765625,8.197998046875
0.1255,-5.295166015625,-3.773681640625,8.878662109375
0.126,-3.693603515625,-5.615478515625,9.078857421875
0.1265,-1.931884765625,-6.816650390625,8.518310546875
0.127,-0.370361328125,-7.977783203125,8.197998046875
0.1275,1.431396484375,-8.818603515625,7.237060546875
0.128,3.072998046875,-9.459228515625,6.356201171875
0.1285,4.754638671875,-10.099853515625,5.315185546875
0.129,6.035888671875,-9.819580078125,3.873779296875
0.1295,7.036865234375,-9.259033203125,2.272216796875
0.13,7.957763671875,-8.458251953125,0.670654296875
0.1305,8.398193359375,-7.217041015625,-1.010986328125
0.131,9.038818359375,-6.336181640625,-2.612548828125
0.1315,9.519287109375,-5.054931640625,-4.414306640625
0.132,8.998779296875,-3.253173828125,-5.655517578125
0.1325,8.398193359375,-1.571533203125,-6.816650390625
0.133,7.397216796875,0.270263671875,-7.617431640625
0.1335,6.316162109375,2.112060546875,-8.298095703125
0.134,5.114990234375,3.953857421875,-8.978759765625
0.1345,3.353271484375,5.635498046875,-8.898681640625
0.135,1.671630859375,6.796630859375,-8.378173828125
0.1355,0.150146484375,7.957763671875,-7.977783203125
0.136,-1.731689453125,8.678466796875,-6.976806640625
0.1365,-3.373291015625,9.279052734375,-6.055908203125
0.137,-5.014892578125,9.719482421875,-4.974853515625
0.1375,-6.135986328125,9.158935546875,-3.333251953125
0.138,-7.177001953125,8.678466796875,-1.771728515625
0.1385,-7.937744140625,7.717529296875,0.030029296875
0.139,-8.498291015625,6.556396484375,1.711669921875
0.1395,-9.138916015625,5.595458984375,3.353271484375
0.14,-9.379150390625,4.154052734375,5.034912109375
0.1405,-8.618408203125,2.272216796875,6.156005859375
0.141,-8.057861328125,0.510498046875,7.397216796875
0.1415,-6.816650390625,-1.451416015625,8.037841796875
0.142,-5.615478515625,-3.333251953125,8.758544921875
0.1425,-4.134033203125,-5.135009765625,9.118896484375
0.143,-2.372314453125,-6.576416015625,8.718505859375
0.1435,-0.770751953125,-7.697509765625,8.278076171875
0.144,0.950927734375,-8.658447265625,7.637451171875
0.1445,2.832763671875,-9.379150390625,6.436279296875
0.145,4.354248046875,-9.939697265625,5.555419921875
0.1455,5.755615234375,-10.139892578125,4.314208984375
0.146,6.796630859375,-9.339111328125,2.672607421875
0.1465,7.757568359375,-8.698486328125,1.111083984375
0.147,8.278076171875,-7.537353515625,-0.650634765625
0.1475,8.918701171875,-6.536376953125,-2.252197265625
0.148,9.439208984375,-5.495361328125,-3.853759765625
0.1485,9.239013671875,-3.813720703125,-5.415283203125
0.149,8.478271484375,-2.092041015625,-6.376220703125
0.1495,7.797607421875,-0.290283203125,-7.497314453125
0.15,6.516357421875,1.591552734375,-8.057861328125
0.1505,5.475341796875,3.433349609375,-8.818603515625
0.151,3.873779296875,5.155029296875,-8.938720703125
0.1515,2.192138671875,6.436279296875,-8.498291015625
0.152,0.630615234375,7.557373046875,-8.057861328125
0.1525,-1.131103515625,8.358154296875,-7.297119140625
0.153,-2.812744140625,9.038818359375,-6.336181640625
0.1535,-4.334228515625,9.559326171875,-5.375244140625
0.154,-5.695556640625,9.439208984375,-3.933837890625
0.1545,-6.656494140625,8.758544921875,-2.372314453125
0.155,-7.657470703125,8.077880859375,-0.730712890625
0.1555,-8.137939453125,6.836669921875,1.071044921875
0.156,-8.818603515625,5.955810546875,2.632568359375
0.1565,-9.259033203125,4.834716796875,4.234130859375
0.157,-8.818603515625,3.032958984375,5.635498046875
0.1575,-8.218017578125,1.311279296875,6.756591796875
0.158,-7.297119140625,-0.570556640625,7.677490234375
0.1585,-6.055908203125,-2.452392578125,8.318115234375
0.159,-4.814697265625,-4.214111328125,8.838623046875
0.1595,-3.173095703125,-5.815673828125,8.758544921875
0.16,-1.531494140625,-6.976806640625,8.318115234375
0.1605,0.070068359375,-8.137939453125,7.877685546875
0.161,1.871826171875,-8.818603515625,6.876708984375
0.1615,3.473388671875,-9.579345703125,5.955810546875
0.162,4.874755859375,-9.859619140625,4.994873046875
0.1625,6.075927734375,-9.459228515625,3.473388671875
0.163,6.996826171875,-8.818603515625,1.991943359375
0.1635,7.837646484375,-7.977783203125,0.350341796875
0.164,8.318115234375,-6.856689453125,-1.291259765625
0.1645,8.998779296875,-6.095947265625,-2.812744140625
0.165,9.198974609375,-4.734619140625,-4.414306640625
0.1655,8.558349609375,-2.972900390625,-5.575439453125
0.166,8.037841796875,-1.291259765625,-6.736572265625
0.1665,6.996826171875,0.510498046875,-7.417236328125
0.167,5.995849609375,2.272216796875,-8.218017578125
0.1675,4.754638671875,3.993896484375,-8.658447265625
0.168,3.032958984375,5.475341796875,-8.418212890625
0.1685,1.591552734375,6.556396484375,-8.057861328125
0.169,0.030029296875,7.677490234375,-7.657470703125
0.1695,-1.691650390625,8.318115234375,-6.736572265625
0.17,-3.213134765625,9.078857421875,-5.935791015625
0.1705,-4.614501953125,9.239013671875,-4.814697265625
0.171,-5.735595703125,8.758544921875,-3.253173828125
0.1715,-6.736572265625,8.238037109375,-1.771728515625
0.172,-7.417236328125,7.317138671875,-0.130126953125
0.1725,-8.177978515625,6.436279296875,1.471435546875
0.173,-8.778564453125,5.595458984375,2.952880859375
0.1735,-8.778564453125,4.114013671875,4.514404296875
0.174,-8.177978515625,2.392333984375,5.675537109375
0.1745,-7.657470703125,0.630615234375,6.876708984375
0.175,-6.496337890625,-1.171142578125,7.477294921875
0.1755,-5.535400390625,-2.932861328125,8.318115234375
0.176,-4.134033203125,-4.534423828125,8.478271484375
0.1765,-2.532470703125,-5.895751953125,8.197998046875
0.177,-1.091064453125,-7.056884765625,7.877685546875
0.1775,0.550537109375,-7.977783203125,7.237060546875
0.178,2.152099609375,-8.658447265625,6.436279296875
0.1785,3.553466796875,-9.299072265625,5.715576171875
0.179,4.834716796875,-9.299072265625,4.514404296875
0.1795,5.835693359375,-8.778564453125,3.072998046875
0.18,6.916748046875,-8.258056640625,1.551513671875
0.1805,7.397216796875,-7.297119140625,0.030029296875
0.181,8.238037109375,-6.656494140625,-1.531494140625
0.1815,8.718505859375,-5.695556640625,-2.972900390625
0.182,8.518310546875,-4.134033203125,-4.414306640625
0.1825,8.037841796875,-2.572509765625,-5.455322265625
0.183,7.437255859375,-0.890869140625,-6.536376953125
0.1835,6.516357421875,0.830810546875,-7.297119140625
0.184,5.715576171875,2.512451171875,-8.137939453125
0.1845,4.154052734375,4.033935546875,-8.137939453125
0.185,2.712646484375,5.275146484375,-7.977783203125
0.1855,1.311279296875,6.476318359375,-7.777587890625
0.186,-0.250244140625,7.397216796875,-7.136962890625
0.1865,-1.771728515625,8.238037109375,-6.536376953125
0.187,-3.133056640625,8.718505859375,-5.695556640625
0.1875,-4.414306640625,8.598388671875,-4.334228515625
0.188,-5.415283203125,8.238037109375,-3.012939453125
