wavelength,x,y,z
0.0,21.195678710938,-4.3892822265625,-16.000610351562
0.0005,19.594116210938,-0.2652587890625,-18.563110351562
0.001,17.351928710938,3.8587646484375,-20.444946289062
0.0015,15.189819335938,7.5023193359375,-22.006469726562
0.002,11.546264648438,10.865600585938,-21.766235351562
0.0025,7.8226318359375,14.268920898438,-21.606079101562
0.003,3.2581787109375,17.592163085938,-20.484985351562
0.0035,-2.3072509765625,20.114624023438,-17.802368164062
0.004,-5.9107666015625,21.275756835938,-15.520141601562
0.0045,-9.2340087890625,21.836303710938,-13.077758789062
0.005,-12.397094726562,21.876342773438,-10.154907226562
0.0055,-16.280883789062,20.675170898438,-5.2701416015625
0.006,-18.883422851562,19.033569335938,-1.1461181640625
0.0065,-20.805297851562,16.631225585938,3.2581787109375
0.007,-21.926391601562,14.148803710938,6.7816162109375
0.0075,-21.806274414062,10.745483398438,10.024780273438
0.008,-21.686157226562,7.3822021484375,13.388061523438
0.0085,-20.805297851562,3.0179443359375,16.911499023438
0.009,-18.723266601562,-1.7467041015625,19.514038085938
0.0095,-16.320922851562,-5.4703369140625,20.875366210938
0.01,-14.158813476562,-8.6734619140625,22.036499023438
0.0105,-10.795532226562,-11.876586914062,21.916381835938
0.011,-5.9107666015625,-15.640258789062,20.995483398438
0.0115,-1.5865478515625,-18.322875976562,19.554077148438
0.012,3.4183349609375,-20.444946289062,16.951538085938
0.0125,6.9017333984375,-21.445922851562,14.749389648438
0.013,10.224975585938,-21.526000976562,11.786499023438
0.0135,13.107788085938,-21.526000976562,8.9837646484375
0.014,16.871459960938,-20.284790039062,4.1790771484375
0.0145,19.433959960938,-18.002563476562,-0.5855712890625
0.015,20.875366210938,-15.760375976562,-4.1890869140625
0.0155,21.796264648438,-13.398071289062,-7.5123291015625
0.016,21.475952148438,-9.9947509765625,-10.635375976562
0.0165,20.995483398438,-5.9107666015625,-14.318969726562
0.017,20.034545898438,-2.1470947265625,-17.161743164062
0.0175,17.952514648438,2.4974365234375,-19.684204101562
0.018,15.510131835938,6.1009521484375,-20.845336914062
0.0185,12.827514648438,9.2640380859375,-21.405883789062
0.019,9.6644287109375,12.427124023438,-21.526000976562
0.0195,4.4193115234375,16.230834960938,-20.204711914062
0.02,-0.2652587890625,18.633178710938,-18.282836914062
0.0205,-4.2691650390625,20.354858398438,-16.160766601562
0.021,-7.6724853515625,21.275756835938,-13.958618164062
0.0215,-10.875610351562,21.115600585938,-10.715454101562
0.022,-14.078735351562,20.675170898438,-7.3922119140625
0.0225,-17.201782226562,19.554077148438,-3.2281494140625
0.023,-19.564086914062,16.951538085938,1.6966552734375
0.0235,-20.645141601562,14.749389648438,4.9798583984375
0.024,-21.285766601562,12.146850585938,8.1829833984375
0.0245,-21.165649414062,8.9437255859375,11.265991210938
0.025,-20.364868164062,4.3792724609375,15.069702148438
0.0255,-19.083618164062,0.4954833984375,17.712280273438
0.026,-17.081665039062,-3.6685791015625,19.874389648438
0.0265,-14.799438476562,-6.9918212890625,20.995483398438
0.027,-11.676391601562,-10.194946289062,21.115600585938
0.0275,-8.3131103515625,-13.438110351562,21.115600585938
0.028,-3.3482666015625,-16.841430664062,19.794311523438
0.0285,1.7767333984375,-19.123657226562,17.231811523438
0.029,5.0999755859375,-20.364868164062,15.349975585938
0.0295,8.3831787109375,-21.205688476562,13.067749023438
0.03,11.586303710938,-21.005493164062,9.9046630859375
0.0305,15.109741210938,-20.204711914062,5.7806396484375
0.031,17.912475585938,-18.763305664062,1.7366943359375
0.0315,20.114624023438,-16.360961914062,-2.9078369140625
0.032,20.955444335938,-14.078735351562,-6.0308837890625
0.0325,21.195678710938,-11.075805664062,-9.3140869140625
0.033,21.115600585938,-7.7926025390625,-12.677368164062
0.0335,20.274780273438,-3.4283447265625,-16.160766601562
0.034,18.272827148438,1.0960693359375,-18.563110351562
0.0345,16.270874023438,4.8197021484375,-20.324829101562
0.035,13.868530273438,8.1029052734375,-21.285766601562
0.0355,10.425170898438,11.386108398438,-21.125610351562
0.036,6.2210693359375,14.909545898438,-20.645141601562
0.0365,1.5765380859375,17.912475585938,-19.283813476562
0.037,-3.5484619140625,20.034545898438,-16.601196289062
0.0375,-6.6715087890625,20.915405273438,-14.559204101562
0.038,-9.9947509765625,21.395874023438,-11.916625976562
0.0385,-13.277954101562,21.115600585938,-8.6334228515625
0.039,-16.641235351562,19.994506835938,-4.1890869140625
0.0395,-19.203735351562,17.952514648438,0.3753662109375
0.04,-21.005493164062,15.550170898438,4.4993896484375
0.0405,-21.606079101562,12.987670898438,7.6224365234375
0.041,-21.566040039062,9.6243896484375,11.025756835938
0.0415,-21.125610351562,5.6204833984375,14.549194335938
0.042,-20.164672851562,1.5364990234375,17.752319335938
0.0425,-17.762329101562,-3.1480712890625,19.954467773438
0.043,-15.560180664062,-6.4713134765625,21.155639648438
0.0435,-12.997680664062,-9.7144775390625,21.956420898438
0.044,-9.1539306640625,-13.077758789062,21.596069335938
0.0445,-4.5093994140625,-16.481079101562,20.434936523438
0.045,0.3753662109375,-19.083618164062,18.513061523438
0.0455,4.8997802734375,-20.925415039062,16.030639648438
0.046,7.9827880859375,-21.405883789062,13.708374023438
0.0465,11.386108398438,-21.606079101562,10.745483398438
0.047,14.749389648438,-21.085571289062,7.0618896484375
0.0475,17.832397460938,-19.644165039062,2.6575927734375
0.048,20.114624023438,-17.161743164062,-2.0670166015625
0.0485,21.475952148438,-14.999633789062,-5.6705322265625
0.049,21.796264648438,-12.196899414062,-8.8336181640625
0.0495,21.636108398438,-8.5133056640625,-12.357055664062
0.05,20.795288085938,-4.3892822265625,-15.640258789062
0.0505,19.514038085938,-0.1851806640625,-18.523071289062
0.051,17.031616210938,4.2991943359375,-20.484985351562
0.0515,14.589233398438,7.4222412109375,-21.285766601562
0.052,11.706420898438,10.705444335938,-21.766235351562
0.0525,7.5023193359375,14.308959960938,-21.285766601562
0.053,2.8577880859375,17.351928710938,-19.884399414062
0.0535,-2.0670166015625,19.514038085938,-17.442016601562
0.054,-5.9508056640625,21.115600585938,-15.400024414062
0.0545,-9.0338134765625,21.395874023438,-12.797485351562
0.055,-12.236938476562,21.315795898438,-9.7144775390625
0.0555,-15.720336914062,20.555053710938,-5.7105712890625
0.056,-18.563110351562,18.833374023438,-1.2261962890625
0.0565,-20.484985351562,16.230834960938,3.3382568359375
0.057,-21.405883789062,13.948608398438,6.5013427734375
0.0575,-21.766235351562,10.905639648438,9.7445068359375
0.058,-21.325805664062,6.9017333984375,13.508178710938
0.0585,-20.404907226562,2.9378662109375,16.591186523438
0.059,-18.603149414062,-1.3863525390625,19.073608398438
0.0595,-16.481079101562,-5.4302978515625,21.035522460938
0.06,-13.798461914062,-8.3931884765625,21.435913085938
0.0605,-10.835571289062,-11.556274414062,21.636108398438
0.061,-6.2711181640625,-15.279907226562,20.995483398438
0.0615,-1.4263916015625,-18.202758789062,19.233764648438
0.062,3.2181396484375,-19.964477539062,16.671264648438
0.0625,6.5814208984375,-21.165649414062,14.749389648438
0.063,9.8646240234375,-21.485961914062,12.026733398438
0.0635,13.187866210938,-21.045532226562,8.4632568359375
0.064,16.390991210938,-20.164672851562,4.5394287109375
0.0645,19.113647460938,-18.122680664062,-0.1851806640625
0.065,20.915405273438,-15.720336914062,-4.3492431640625
0.0655,21.355834960938,-13.157836914062,-7.3922119140625
0.066,21.636108398438,-10.194946289062,-10.595336914062
0.0665,21.115600585938,-5.7906494140625,-14.439086914062
0.067,19.994506835938,-1.8267822265625,-17.361938476562
0.0675,17.752319335938,2.4573974609375,-19.363891601562
0.068,15.750366210938,6.1810302734375,-21.125610351562
0.0685,12.787475585938,9.2640380859375,-21.445922851562
0.069,9.2640380859375,12.627319335938,-21.285766601562
0.0695,4.8597412109375,15.990600585938,-20.444946289062
0.07,-0.3052978515625,18.833374023438,-18.402954101562
0.0705,-4.5894775390625,20.474975585938,-15.960571289062
0.071,-7.6724853515625,21.155639648438,-13.838500976562
0.0715,-10.955688476562,21.475952148438,-11.155883789062
0.072,-14.599243164062,20.715209960938,-6.9117431640625
0.0725,-17.321899414062,19.514038085938,-3.0679931640625
0.073,-19.684204101562,17.151733398438,1.5765380859375
0.0735,-21.285766601562,14.789428710938,5.4202880859375
0.074,-21.405883789062,11.906616210938,8.4632568359375
0.0745,-21.485961914062,8.6634521484375,11.866577148438
0.075,-20.765258789062,4.4193115234375,15.470092773438
0.0755,-19.323852539062,0.0550537109375,18.432983398438
0.076,-16.881469726562,-4.1090087890625,20.114624023438
0.0765,-14.799438476562,-7.2320556640625,21.355834960938
0.077,-11.916625976562,-10.515258789062,21.716186523438
0.0775,-7.5523681640625,-14.198852539062,21.075561523438
0.078,-3.3482666015625,-17.001586914062,19.874389648438
0.0785,1.7767333984375,-19.403930664062,17.512084960938
0.079,5.7406005859375,-20.965454101562,15.349975585938
0.0795,8.7034912109375,-21.125610351562,12.747436523438
0.08,11.786499023438,-21.445922851562,10.224975585938
0.0805,15.670288085938,-20.484985351562,5.6204833984375
0.081,18.312866210938,-18.803344726562,1.2962646484375
0.0815,20.194702148438,-16.521118164062,-2.9078369140625
0.082,21.475952148438,-14.238891601562,-6.3912353515625
0.0825,21.475952148438,-11.115844726562,-9.4742431640625
0.083,21.235717773438,-7.1519775390625,-13.277954101562
0.0835,20.394897460938,-3.4683837890625,-16.200805664062
0.084,18.593139648438,1.1361083984375,-18.923461914062
0.0845,16.150756835938,5.0999755859375,-20.565063476562
0.085,13.668334960938,8.1829833984375,-21.125610351562
0.0855,10.985717773438,11.225952148438,-21.646118164062
0.086,5.7806396484375,15.309936523438,-20.645141601562
0.0865,1.4964599609375,17.872436523438,-19.083618164062
0.087,-3.0679931640625,19.794311523438,-16.721313476562
0.0875,-6.7515869140625,21.195678710938,-14.719360351562
0.088,-9.8746337890625,21.115600585938,-11.676391601562
0.0885,-13.077758789062,20.955444335938,-8.7535400390625
0.089,-16.401000976562,20.114624023438,-4.5894775390625
0.0895,-19.043579101562,17.832397460938,0.2552490234375
0.09,-20.565063476562,15.510131835938,4.0989990234375
0.0905,-21.325805664062,13.107788085938,7.3021240234375
0.091,-21.526000976562,10.184936523438,10.385131835938
0.0915,-20.925415039062,5.5003662109375,14.549194335938
0.092,-19.924438476562,1.8568115234375,17.191772460938
0.0925,-17.762329101562,-2.4273681640625,19.514038085938
0.093,-15.720336914062,-6.2711181640625,21.195678710938
0.0935,-12.717407226562,-9.2740478515625,21.195678710938
0.094,-9.8746337890625,-12.357055664062,21.515991210938
0.0945,-4.7896728515625,-16.160766601562,20.474975585938
0.095,0.2952880859375,-18.723266601562,18.192749023438
0.0955,4.1390380859375,-20.204711914062,15.990600585938
0.096,7.5423583984375,-21.405883789062,13.988647460938
0.0965,10.785522460938,-21.285766601562,11.025756835938
0.097,14.389038085938,-20.645141601562,6.9818115234375
0.0975,17.231811523438,-19.724243164062,3.1781005859375
0.098,19.714233398438,-17.241821289062,-1.5865478515625
0.0985,21.075561523438,-14.959594726562,-5.2301025390625
0.099,21.275756835938,-12.076782226562,-8.3131103515625
0.0995,21.435913085938,-9.1539306640625,-11.516235351562
0.1,20.755249023438,-4.5093994140625,-15.440063476562
0.1005,19.033569335938,-0.3052978515625,-18.042602539062
0.101,16.911499023438,3.6185302734375,-19.764282226562
0.1015,14.869506835938,7.1820068359375,-21.325805664062
0.102,11.466186523438,10.385131835938,-21.165649414062
0.1025,7.6224365234375,13.788452148438,-20.925415039062
0.103,3.3382568359375,16.951538085938,-19.924438476562
0.1035,-2.0269775390625,19.393920898438,-17.321899414062
0.104,-5.5504150390625,20.595092773438,-15.199829101562
0.1045,-8.8736572265625,21.115600585938,-12.797485351562
0.105,-11.796508789062,21.275756835938,-10.194946289062
0.1055,-15.680297851562,20.154663085938,-5.4302978515625
0.106,-18.122680664062,18.553100585938,-1.3062744140625
0.1065,-20.044555664062,16.270874023438,2.8177490234375
0.107,-21.205688476562,13.948608398438,6.2611083984375
0.1075,-21.125610351562,10.705444335938,9.4241943359375
0.108,-21.045532226562,7.3021240234375,12.787475585938
0.1085,-20.324829101562,3.1781005859375,16.150756835938
0.109,-18.242797851562,-1.3863525390625,18.753295898438
0.1095,-16.000610351562,-4.9898681640625,20.114624023438
0.11,-13.838500976562,-8.1129150390625,21.195678710938
0.1105,-10.835571289062,-11.155883789062,21.235717773438
0.111,-5.9107666015625,-14.879516601562,20.274780273438
0.1115,-1.7867431640625,-17.482055664062,18.913452148438
0.112,2.8978271484375,-19.524047851562,16.551147460938
0.1125,6.3812255859375,-20.645141601562,14.429077148438
0.113,9.5042724609375,-20.765258789062,11.586303710938
0.1135,12.387084960938,-20.805297851562,8.9837646484375
0.114,15.990600585938,-19.684204101562,4.4593505859375
0.1145,18.473022460938,-17.442016601562,-0.1851806640625
0.115,19.874389648438,-15.400024414062,-3.6685791015625
0.1155,20.755249023438,-13.117797851562,-6.8316650390625
0.116,20.635131835938,-10.114868164062,-9.7945556640625
0.1165,20.154663085938,-5.9107666015625,-13.438110351562
0.117,19.353881835938,-2.3072509765625,-16.280883789062
0.1175,17.311889648438,2.0570068359375,-18.563110351562
0.118,15.069702148438,5.5404052734375,-19.884399414062
0.1185,12.427124023438,8.5833740234375,-20.324829101562
0.119,9.7044677734375,11.506225585938,-20.645141601562
0.1195,4.5394287109375,15.309936523438,-19.484008789062
0.12,0.1351318359375,17.632202148438,-17.442016601562
0.1205,-3.7086181640625,19.233764648438,-15.560180664062
0.121,-6.9918212890625,20.314819335938,-13.718383789062
0.1215,-10.114868164062,20.194702148438,-10.635375976562
0.122,-13.277954101562,19.874389648438,-7.3121337890625
0.1225,-16.280883789062,18.873413085938,-3.4683837890625
0.123,-18.523071289062,16.471069335938,1.2562255859375
0.1235,-19.684204101562,14.389038085938,4.3792724609375
0.124,-20.324829101562,11.826538085938,7.4222412109375
0.1245,-20.324829101562,8.9437255859375,10.465209960938
0.125,-19.604125976562,4.5394287109375,14.228881835938
0.1255,-18.322875976562,0.6956787109375,16.791381835938
0.126,-16.441040039062,-3.1881103515625,18.793334960938
0.1265,-14.479125976562,-6.4312744140625,20.154663085938
0.127,-11.396118164062,-9.4742431640625,20.194702148438
0.1275,-8.1929931640625,-12.677368164062,20.234741210938
0.128,-3.5084228515625,-15.960571289062,19.113647460938
0.1285,1.4163818359375,-18.322875976562,16.671264648438
0.129,4.6195068359375,-19.484008789062,14.909545898438
0.1295,7.8226318359375,-20.364868164062,12.827514648438
0.13,10.865600585938,-20.244750976562,9.9447021484375
0.1305,14.389038085938,-19.524047851562,5.7406005859375
0.131,17.111694335938,-18.162719726562,1.8968505859375
0.1315,19.193725585938,-15.920532226562,-2.4273681640625
0.132,20.194702148438,-13.718383789062,-5.4302978515625
0.1325,20.354858398438,-10.875610351562,-8.6334228515625
0.133,20.314819335938,-7.7125244140625,-11.836547851562
0.1335,19.554077148438,-3.5484619140625,-15.279907226562
0.134,17.672241210938,0.8157958984375,-17.722290039062
0.1345,15.750366210938,4.2991943359375,-19.283813476562
0.135,13.628295898438,7.5023193359375,-20.444946289062
0.1355,10.305053710938,10.585327148438,-20.364868164062
0.136,6.1009521484375,14.148803710938,-19.764282226562
0.1365,1.8568115234375,16.951538085938,-18.603149414062
0.137,-3.0679931640625,19.073608398438,-16.080688476562
0.1375,-6.0308837890625,19.994506835938,-14.198852539062
0.138,-9.2740478515625,20.474975585938,-11.676391601562
0.1385,-12.357055664062,20.354858398438,-8.6734619140625
0.139,-15.680297851562,19.233764648438,-4.3492431640625
0.1395,-18.242797851562,17.271850585938,0.1351318359375
0.14,-19.884399414062,15.069702148438,3.7786865234375
0.1405,-20.525024414062,12.787475585938,6.8616943359375
0.141,-20.484985351562,9.5443115234375,10.024780273438
0.1415,-20.084594726562,5.7406005859375,13.468139648438
0.142,-19.243774414062,1.8568115234375,16.511108398438
0.1425,-17.001586914062,-2.5875244140625,18.753295898438
0.143,-14.919555664062,-5.7506103515625,19.914428710938
0.1435,-12.677368164062,-8.8336181640625,20.755249023438
0.144,-9.3140869140625,-12.036743164062,20.555053710938
0.1445,-4.5494384765625,-15.440063476562,19.433959960938
0.145,0.0150146484375,-17.922485351562,17.592163085938
0.1455,4.1790771484375,-19.604125976562,15.470092773438
0.146,7.1419677734375,-20.284790039062,13.388061523438
0.1465,10.345092773438,-20.484985351562,10.545288085938
0.147,13.588256835938,-20.124633789062,7.1019287109375
0.1475,16.551147460938,-18.963500976562,2.9378662109375
0.148,18.793334960938,-16.521118164062,-1.5865478515625
0.1485,20.074584960938,-14.439086914062,-4.8297119140625
0.149,20.635131835938,-11.876586914062,-7.9127197265625
0.1495,20.474975585938,-8.4732666015625,-11.195922851562
0.15,19.794311523438,-4.5093994140625,-14.479125976562
0.1505,18.553100585938,-0.5855712890625,-17.241821289062
0.151,16.350952148438,3.6585693359375,-19.283813476562
0.1515,14.068725585938,6.6214599609375,-20.204711914062
0.152,11.426147460938,9.7845458984375,-20.685180664062
0.1525,7.6224365234375,13.267944335938,-20.484985351562
0.153,3.0179443359375,16.431030273438,-19.083618164062
0.1535,-1.7867431640625,18.553100585938,-16.761352539062
0.154,-5.2701416015625,20.074584960938,-14.919555664062
0.1545,-8.3931884765625,20.555053710938,-12.597290039062
0.155,-11.476196289062,20.474975585938,-9.5543212890625
0.1555,-14.879516601562,19.794311523438,-5.8306884765625
0.156,-17.602172851562,18.152709960938,-1.4664306640625
0.1565,-19.644165039062,15.710327148438,3.0179443359375
0.157,-20.484985351562,13.508178710938,6.0208740234375
0.1575,-20.925415039062,10.665405273438,9.2640380859375
0.158,-20.645141601562,6.9017333984375,12.787475585938
0.1585,-19.764282226562,2.9378662109375,15.950561523438
0.159,-18.042602539062,-1.3463134765625,18.312866210938
0.1595,-15.920532226562,-5.1500244140625,20.314819335938
0.16,-13.438110351562,-8.1529541015625,20.875366210938
0.1605,-10.475219726562,-11.316040039062,21.035522460938
0.161,-6.1510009765625,-14.879516601562,20.474975585938
0.1615,-1.3062744140625,-17.802368164062,18.753295898438
0.162,3.3382568359375,-19.644165039062,16.270874023438
0.1625,6.4613037109375,-20.685180664062,14.389038085938
0.163,9.7044677734375,-21.205688476562,11.786499023438
0.1635,13.107788085938,-20.725219726562,8.1829833984375
0.164,16.350952148438,-19.764282226562,4.2591552734375
0.1645,18.913452148438,-17.682250976562,-0.3853759765625
0.165,20.715209960938,-15.400024414062,-4.4693603515625
0.1655,21.075561523438,-12.797485351562,-7.4322509765625
0.166,21.315795898438,-9.7545166015625,-10.675415039062
0.1665,20.795288085938,-5.5504150390625,-14.439086914062
0.167,19.714233398438,-1.4263916015625,-17.401977539062
0.1675,17.311889648438,2.8177490234375,-19.484008789062
0.168,15.229858398438,6.2210693359375,-20.965454101562
0.1685,12.467163085938,9.5042724609375,-21.325805664062
0.169,8.7435302734375,12.867553710938,-21.125610351562
0.1695,4.4993896484375,16.150756835938,-20.204711914062
0.17,-0.6656494140625,18.913452148438,-18.082641601562
0.1705,-4.9898681640625,20.515014648438,-15.720336914062
0.171,-7.8326416015625,21.115600585938,-13.438110351562
0.1715,-11.235961914062,21.435913085938,-10.755493164062
0.172,-14.799438476562,20.555053710938,-6.5914306640625
0.1725,-17.562133789062,19.233764648438,-2.5875244140625
0.173,-19.764282226562,16.871459960938,1.9368896484375
0.1735,-21.285766601562,14.589233398438,5.7406005859375
0.174,-21.365844726562,11.666381835938,8.7435302734375
0.1745,-21.405883789062,8.2230224609375,12.226928710938
0.175,-20.605102539062,4.0989990234375,15.550170898438
0.1755,-19.083618164062,-0.3453369140625,18.553100585938
0.176,-16.641235351562,-4.5494384765625,20.114624023438
0.1765,-14.519165039062,-7.5123291015625,21.235717773438
0.177,-11.716430664062,-10.715454101562,21.676147460938
0.1775,-7.1519775390625,-14.399047851562,20.995483398438
0.178,-2.9478759765625,-17.121704101562,19.674194335938
