wavelength,x,y,z
0.0,-22.0615234375,4.2841796875,17.4169921875
0.0005,-19.138671875,-1.361328125,20.0595703125
0.001,-18.017578125,-5.7255859375,23.2626953125
0.0015,-13.6533203125,-10.4501953125,23.6630859375
0.002,-11.53125,-14.0537109375,25.14453125
0.0025,-6.1259765625,-16.4560546875,22.181640625
0.003,-1.521484375,-18.6982421875,19.8994140625
0.0035,3.4833984375,-20.98046875,17.3369140625
0.004,8.3681640625,-23.54296875,15.0947265625
0.0045,12.4521484375,-23.86328125,11.53125
0.005,16.2958984375,-23.22265625,7.046875
0.0055,17.7373046875,-21.5009765625,3.84375
0.006,20.8203125,-18.9384765625,-1.8017578125
0.0065,23.302734375,-17.3369140625,-5.9658203125
0.007,24.1435546875,-13.453125,-10.73046875
0.0075,25.14453125,-11.2509765625,-13.9736328125
0.008,22.7822265625,-5.92578125,-16.9765625
0.0085,20.9404296875,-2.482421875,-18.578125
0.009,18.41796875,2.6025390625,-21.140625
0.0095,16.65625,7.3671875,-24.18359375
0.01,12.3720703125,11.6513671875,-24.103515625
0.0105,9.3291015625,15.21484375,-24.6240234375
0.011,4.7646484375,16.7763671875,-21.6611328125
0.0115,-0.640625,19.458984375,-19.138671875
0.012,-4.8046875,21.6611328125,-17.216796875
0.0125,-10.2099609375,23.5830078125,-13.853515625
0.013,-13.212890625,23.9833984375,-11.3310546875
0.0135,-16.8564453125,22.1416015625,-5.92578125
0.014,-18.2177734375,20.33984375,-2.8427734375
0.0145,-21.220703125,18.1376953125,2.5625
0.015,-23.54296875,16.2158203125,6.8466796875
0.0155,-23.7431640625,12.01171875,11.2509765625
0.016,-24.50390625,9.7294921875,14.3740234375
0.0165,-21.7412109375,4.96484375,16.3759765625
0.017,-19.7392578125,0.720703125,18.6181640625
0.0175,-18.09765625,-3.4833984375,21.220703125
0.018,-15.4150390625,-8.6884765625,23.703125
0.0185,-12.0517578125,-11.8916015625,23.5830078125
0.019,-7.6474609375,-15.21484375,22.7822265625
0.0195,-4.083984375,-16.5361328125,20.2197265625
0.02,1.5615234375,-19.4990234375,17.77734375
0.0205,5.4453125,-21.541015625,16.015625
0.021,10.6904296875,-22.7822265625,12.1318359375
0.0215,13.533203125,-23.22265625,9.76953125
0.022,16.2958984375,-20.900390625,4.7646484375
0.0225,18.09765625,-19.0986328125,1.201171875
0.023,20.8603515625,-17.6171875,-3.203125
0.0235,23.0224609375,-15.134765625,-7.84765625
0.024,22.90234375,-11.6513671875,-11.291015625
0.0245,23.1025390625,-8.48828125,-14.734375
0.025,20.419921875,-4.64453125,-15.9755859375
0.0255,18.658203125,0.0400390625,-18.8984375
0.026,17.13671875,3.8837890625,-21.140625
0.0265,13.93359375,9.208984375,-23.22265625
0.027,11.37109375,12.01171875,-23.4228515625
0.0275,6.40625,15.1748046875,-21.6611328125
0.028,2.9228515625,16.3759765625,-19.4189453125
0.0285,-2.2021484375,19.458984375,-17.5771484375
0.029,-6.486328125,21.5009765625,-15.4150390625
0.0295,-10.890625,22.3818359375,-11.9716796875
0.03,-14.0537109375,22.3017578125,-8.8486328125
0.0305,-16.095703125,20.01953125,-4.5244140625
0.031,-18.73828125,18.3779296875,-0.2001953125
0.0315,-21.140625,17.0166015625,3.5634765625
0.032,-23.1025390625,13.93359375,8.7685546875
0.0325,-22.9423828125,10.810546875,11.69140625
0.033,-22.3017578125,6.966796875,14.974609375
0.0335,-19.779296875,3.1630859375,16.2958984375
0.034,-18.41796875,-1.6416015625,19.69921875
0.0345,-16.3759765625,-5.6455078125,21.6611328125
0.035,-13.1328125,-10.6103515625,23.3427734375
0.0355,-10.08984375,-13.453125,23.1025390625
0.036,-4.9248046875,-15.8955078125,20.6201171875
0.0365,-0.7607421875,-17.7373046875,18.2177734375
0.037,3.68359375,-20.7001953125,16.9365234375
0.0375,8.80859375,-22.421875,13.61328125
0.038,12.412109375,-22.7021484375,10.3701171875
0.0385,15.375,-21.861328125,6.6064453125
0.039,17.4169921875,-19.4990234375,2.162109375
0.0395,20.33984375,-18.017578125,-2.5224609375
0.04,22.1416015625,-16.015625,-6.1259765625
0.0405,23.9033203125,-12.7724609375,-11.2109375
0.041,23.1826171875,-9.2890625,-14.0537109375
0.0415,21.8212890625,-5.4052734375,-16.6162109375
0.042,19.0185546875,-0.9208984375,-18.2177734375
0.0425,17.9375,3.5634765625,-21.62109375
0.043,14.734375,8.087890625,-22.90234375
0.0435,11.771484375,12.251953125,-24.0634765625
0.044,7.8876953125,14.974609375,-22.9423828125
0.0445,2.8828125,17.216796875,-20.2197265625
0.045,-1.921875,19.4189453125,-17.8173828125
0.0455,-5.765625,21.78125,-16.3759765625
0.046,-10.970703125,23.3427734375,-12.8525390625
0.0465,-14.173828125,22.6220703125,-9.0087890625
0.047,-16.6162109375,21.4609375,-5.4453125
0.0475,-18.8583984375,18.818359375,-0.560546875
0.048,-22.0615234375,17.537109375,3.9638671875
0.0485,-22.662109375,14.3740234375,7.7275390625
0.049,-24.18359375,11.69140625,12.01171875
0.0495,-22.7822265625,7.4873046875,14.8544921875
0.05,-20.98046875,3.5634765625,17.0166015625
0.0505,-18.337890625,-1.0009765625,18.978515625
0.051,-17.4169921875,-5.1650390625,22.1416015625
0.0515,-13.61328125,-9.76953125,23.1025390625
0.052,-10.650390625,-13.29296875,23.5029296875
0.0525,-6.7265625,-15.53515625,21.8212890625
0.053,-1.5615234375,-17.6572265625,18.8583984375
0.0535,3.0830078125,-20.1796875,16.9765625
0.054,7.126953125,-21.78125,14.57421875
0.0545,11.6513671875,-23.54296875,11.931640625
0.055,14.8544921875,-21.8212890625,7.0869140625
0.0555,16.896484375,-20.740234375,3.9638671875
0.056,19.3388671875,-18.2177734375,-1.0810546875
0.0565,22.421875,-17.1767578125,-5.1650390625
0.057,22.7021484375,-13.453125,-9.3291015625
0.0575,23.943359375,-10.9306640625,-13.1328125
0.058,22.1416015625,-6.9267578125,-15.3349609375
0.0585,19.8994140625,-2.4423828125,-17.6572265625
0.059,17.9775390625,1.921875,-19.9794921875
0.0595,16.2958984375,6.2861328125,-22.6220703125
0.06,13.052734375,10.6904296875,-23.86328125
0.0605,8.888671875,14.173828125,-23.1025390625
0.061,5.525390625,15.8955078125,-21.5009765625
0.0615,0.0,18.2978515625,-18.498046875
0.062,-4.2841796875,21.2607421875,-17.3369140625
0.0625,-8.9287109375,22.0615234375,-13.533203125
0.063,-12.65234375,23.703125,-11.611328125
0.0635,-15.7353515625,21.4208984375,-6.2861328125
0.064,-17.9375,20.099609375,-2.7626953125
0.0645,-20.419921875,17.7373046875,2.162109375
0.065,-23.22265625,16.17578125,6.486328125
0.0655,-23.3427734375,12.251953125,10.5703125
0.066,-23.783203125,9.0087890625,14.333984375
0.0665,-21.861328125,5.60546875,15.8955078125
0.067,-19.4189453125,0.400390625,18.6982421875
0.0675,-17.8974609375,-3.84375,21.3408203125
0.068,-14.9345703125,-8.6484375,23.1025390625
0.0685,-12.572265625,-12.2119140625,24.3837890625
0.069,-7.126953125,-15.53515625,22.3017578125
0.0695,-3.7236328125,-17.056640625,20.4599609375
0.07,2.2021484375,-19.69921875,17.45703125
0.0705,6.40625,-22.662109375,16.1357421875
0.071,11.130859375,-22.7822265625,11.6513671875
0.0715,14.57421875,-23.7431640625,9.2490234375
0.072,16.81640625,-21.1806640625,4.484375
0.0725,19.4990234375,-19.37890625,0.0
0.073,21.8212890625,-17.4970703125,-4.3642578125
0.0735,23.9833984375,-14.6943359375,-8.888671875
0.074,24.0234375,-11.69140625,-12.5322265625
0.0745,23.3828125,-7.20703125,-16.2958984375
0.075,21.220703125,-4.0439453125,-17.3369140625
0.0755,18.73828125,1.44140625,-20.259765625
0.076,17.1767578125,5.685546875,-22.9423828125
0.0765,13.0927734375,10.6103515625,-23.8232421875
0.077,11.130859375,13.7333984375,-24.9443359375
0.0775,5.365234375,16.49609375,-21.94140625
0.078,1.44140625,18.2578125,-19.8994140625
0.0785,-3.603515625,20.7802734375,-17.4970703125
0.079,-8.408203125,23.3427734375,-15.4150390625
0.0795,-12.3720703125,23.22265625,-11.4111328125
0.08,-16.015625,23.0224609375,-7.6474609375
0.0805,-17.5771484375,20.7001953125,-3.763671875
0.081,-20.580078125,18.5380859375,1.44140625
0.0815,-22.58203125,16.7763671875,5.28515625
0.082,-24.0634765625,13.212890625,10.330078125
0.0825,-24.263671875,10.6904296875,13.1328125
0.083,-22.4619140625,5.7255859375,16.416015625
0.0835,-20.3798828125,2.40234375,17.6171875
0.084,-18.337890625,-2.642578125,20.6201171875
0.0845,-16.4560546875,-7.0869140625,23.1826171875
0.085,-12.3720703125,-11.4111328125,23.3828125
0.0855,-9.8095703125,-14.5341796875,23.9833984375
0.086,-4.564453125,-16.5361328125,20.7802734375
0.0865,0.16015625,-18.8583984375,18.4580078125
0.087,4.2841796875,-20.9404296875,16.6162109375
0.0875,9.609375,-23.142578125,13.533203125
0.088,12.65234375,-22.982421875,10.490234375
0.0885,16.2158203125,-21.861328125,5.765625
0.089,17.6171875,-19.8994140625,2.40234375
0.0895,20.8603515625,-18.09765625,-2.72265625
0.09,22.58203125,-16.17578125,-6.486328125
0.0905,23.623046875,-12.4921875,-11.3310546875
0.091,23.8232421875,-9.849609375,-14.09375
0.0915,21.4208984375,-5.0048828125,-16.49609375
0.092,19.37890625,-1.201171875,-18.337890625
0.0925,17.9375,3.123046875,-21.140625
0.093,15.2548828125,8.16796875,-23.54296875
0.0935,11.69140625,11.69140625,-23.5029296875
0.094,7.9677734375,15.0546875,-23.0625
0.0945,3.4833984375,16.576171875,-20.2197265625
0.095,-1.7216796875,19.5390625,-18.2177734375
0.0955,-5.3251953125,21.380859375,-16.416015625
0.096,-10.890625,23.2626953125,-12.892578125
0.0965,-13.693359375,22.8623046875,-9.7294921875
0.097,-16.7763671875,21.220703125,-5.0849609375
0.0975,-18.578125,19.0986328125,-1.201171875
0.098,-21.701171875,17.6572265625,3.443359375
0.0985,-23.1025390625,14.89453125,7.7275390625
0.099,-23.623046875,11.37109375,11.771484375
0.0995,-23.462890625,8.16796875,14.89453125
0.1,-20.8603515625,3.5634765625,16.9365234375
0.1005,-18.8984375,-0.9609375,19.458984375
0.101,-17.376953125,-4.7646484375,21.7412109375
0.1015,-14.173828125,-10.1298828125,23.943359375
0.102,-10.6103515625,-13.1328125,23.3828125
0.1025,-6.326171875,-16.2158203125,22.0615234375
0.103,-1.6416015625,-17.7373046875,19.05859375
0.1035,3.4033203125,-20.900390625,17.3369140625
0.104,7.4072265625,-22.0615234375,14.57421875
0.1045,12.251953125,-23.6630859375,11.451171875
0.105,15.1748046875,-22.58203125,7.447265625
0.1055,17.77734375,-20.7802734375,3.04296875
0.106,20.0595703125,-18.578125,-1.5615234375
0.1065,22.7421875,-17.1767578125,-5.525390625
0.107,23.86328125,-13.6533203125,-10.2099609375
0.1075,23.86328125,-10.2900390625,-13.61328125
0.108,23.0625,-6.7666015625,-16.3759765625
0.1085,20.099609375,-1.8818359375,-18.337890625
0.109,18.5380859375,2.6025390625,-21.1806640625
0.1095,16.015625,6.6064453125,-22.7021484375
0.11,13.052734375,11.5712890625,-24.7041015625
0.1105,8.80859375,14.57421875,-23.4228515625
0.111,4.484375,17.0966796875,-21.6611328125
0.1115,-0.6005859375,18.9384765625,-18.6181640625
0.112,-5.0048828125,22.0615234375,-17.4970703125
0.1125,-9.529296875,22.7421875,-13.61328125
0.113,-13.533203125,23.6630859375,-10.7705078125
0.1135,-16.3759765625,22.1015625,-6.4462890625
0.114,-18.7783203125,19.9794921875,-1.8818359375
0.1145,-21.2607421875,17.9375,2.802734375
0.115,-23.1826171875,15.9755859375,6.6865234375
0.1155,-24.3037109375,12.6123046875,11.2109375
0.116,-23.54296875,8.48828125,14.6142578125
0.1165,-22.341796875,5.28515625,16.6962890625
0.117,-19.298828125,0.1201171875,18.818359375
0.1175,-18.2978515625,-4.0439453125,22.021484375
0.118,-14.7744140625,-8.3681640625,22.7021484375
0.1185,-12.412109375,-12.4521484375,24.4638671875
0.119,-7.4873046875,-15.3349609375,22.421875
0.1195,-3.0830078125,-17.5771484375,20.259765625
0.12,1.921875,-19.5791015625,17.4970703125
0.1205,6.1259765625,-22.3818359375,16.17578125
0.121,10.73046875,-23.0224609375,12.2119140625
0.1215,14.333984375,-23.0625,8.6884765625
0.122,16.5361328125,-21.6611328125,5.1650390625
0.1225,19.1787109375,-19.0986328125,0.0400390625
0.123,21.9013671875,-17.6171875,-4.2041015625
0.1235,23.0224609375,-14.6943359375,-8.328125
0.124,24.34375,-12.2119140625,-12.1318359375
0.1245,22.7421875,-7.3671875,-15.4150390625
0.125,21.3408203125,-4.2041015625,-17.2568359375
0.1255,18.5380859375,0.9208984375,-19.5390625
0.126,17.6572265625,5.125,-22.8623046875
0.1265,13.4130859375,9.6494140625,-23.142578125
0.127,11.05078125,13.29296875,-24.423828125
0.1275,6.3662109375,15.6552734375,-22.1015625
0.128,1.4013671875,18.1376953125,-19.7392578125
0.1285,-3.203125,20.419921875,-17.537109375
0.129,-7.767578125,22.6220703125,-15.294921875
0.1295,-11.8115234375,23.5029296875,-12.251953125
0.13,-15.5751953125,22.3818359375,-7.447265625
0.1305,-17.3369140625,21.1806640625,-4.484375
0.131,-20.2197265625,18.6181640625,1.12109375
0.1315,-23.0224609375,17.1767578125,5.3251953125
0.132,-23.3828125,13.1328125,9.76953125
0.1325,-24.744140625,11.130859375,13.212890625
0.133,-22.4619140625,6.005859375,16.095703125
0.1335,-20.8203125,2.162109375,18.2578125
0.134,-18.41796875,-2.72265625,20.7001953125
0.1345,-16.81640625,-7.4072265625,23.8232421875
0.135,-12.732421875,-11.4912109375,23.8232421875
0.1355,-9.2490234375,-15.1748046875,24.0234375
0.136,-5.0849609375,-16.81640625,21.5009765625
0.1365,0.7607421875,-19.7392578125,18.7783203125
0.137,5.0849609375,-22.1015625,16.9365234375
0.1375,10.41015625,-23.6630859375,13.1328125
0.138,13.61328125,-24.423828125,10.8505859375
0.1385,17.3369140625,-22.26171875,5.044921875
0.139,19.0986328125,-20.8203125,1.8017578125
0.1395,22.1015625,-18.4580078125,-3.6435546875
0.14,24.6240234375,-16.4560546875,-8.2080078125
0.1405,24.50390625,-11.9716796875,-12.572265625
0.141,25.3046875,-9.4892578125,-15.935546875
0.1415,22.421875,-4.5244140625,-17.9775390625
0.142,20.2998046875,0.2802734375,-20.66015625
0.1425,18.2177734375,4.6845703125,-22.9423828125
0.143,15.21484375,10.2099609375,-25.46484375
0.1435,11.611328125,13.4931640625,-25.224609375
0.144,6.6865234375,17.3369140625,-24.18359375
0.1445,2.72265625,18.6181640625,-21.541015625
0.145,-3.4833984375,21.861328125,-18.7783203125
0.1455,-7.6875,23.703125,-16.5361328125
0.146,-13.212890625,24.744140625,-12.171875
0.1465,-16.015625,24.904296875,-9.4892578125
0.147,-19.21875,22.26171875,-3.68359375
0.1475,-21.30078125,20.1396484375,0.640625
0.148,-23.943359375,18.017578125,5.4052734375
0.1485,-25.9453125,14.974609375,10.4501953125
0.149,-25.3046875,10.810546875,14.09375
0.1495,-25.14453125,7.2470703125,17.537109375
0.15,-22.341796875,2.5224609375,19.21875
0.1505,-19.859375,-2.8427734375,22.26171875
0.151,-17.6171875,-6.806640625,24.0234375
0.1515,-13.8935546875,-12.4921875,25.9453125
0.152,-10.5302734375,-15.2548828125,25.3447265625
0.1525,-4.884765625,-18.578125,23.1025390625
0.153,-0.640625,-19.939453125,20.2197265625
0.1535,5.0849609375,-23.0625,17.857421875
0.154,9.6494140625,-24.50390625,14.734375
0.1545,14.333984375,-24.984375,10.7705078125
0.155,17.3369140625,-24.34375,7.1669921875
0.1555,19.8193359375,-21.62109375,1.9619140625
0.156,22.341796875,-19.37890625,-2.8828125
0.1565,24.34375,-17.4970703125,-6.7666015625
0.157,26.025390625,-13.93359375,-12.1318359375
0.1575,25.14453125,-10.0498046875,-15.1748046875
0.158,24.18359375,-5.9658203125,-18.337890625
0.1585,21.060546875,-1.4013671875,-19.7392578125
0.159,19.2587890625,3.763671875,-23.0625
0.1595,16.3359375,7.927734375,-24.34375
0.16,12.7724609375,13.3330078125,-25.7451171875
0.1605,9.048828125,15.935546875,-25.064453125
0.161,3.5634765625,18.6181640625,-22.421875
0.1615,-1.0810546875,20.33984375,-19.619140625
0.162,-5.7255859375,23.1826171875,-17.9775390625
0.1625,-10.9306640625,24.5439453125,-14.09375
0.163,-14.6943359375,24.50390625,-10.41015625
0.1635,-17.6572265625,23.3828125,-6.40625
0.164,-19.939453125,20.740234375,-1.4013671875
0.1645,-22.9423828125,18.8583984375,3.5634765625
0.165,-24.2236328125,16.416015625,7.3271484375
0.1655,-25.9453125,12.8525390625,12.6123046875
0.166,-24.82421875,8.80859375,15.6552734375
0.1665,-23.3828125,4.64453125,18.337890625
0.167,-20.33984375,-0.16015625,20.0595703125
0.1675,-19.138671875,-4.8447265625,23.623046875
0.168,-15.375,-9.4892578125,24.4638671875
0.1685,-12.1318359375,-13.853515625,25.625
0.169,-7.84765625,-16.736328125,24.18359375
0.1695,-2.322265625,-19.298828125,21.2607421875
0.17,2.72265625,-21.5009765625,18.5380859375
0.1705,7.046875,-23.783203125,16.65625
0.171,12.5322265625,-25.14453125,12.6923828125
0.1715,16.095703125,-24.34375,8.3681640625
0.172,18.6982421875,-23.22265625,4.484375
0.1725,21.30078125,-20.259765625,-0.9609375
0.173,24.3837890625,-18.6982421875,-5.685546875
0.1735,24.9443359375,-15.0546875,-9.849609375
0.174,26.505859375,-12.2119140625,-14.333984375
0.1745,24.6640625,-7.2470703125,-17.4970703125
0.175,22.822265625,-3.0029296875,-19.939453125
0.1755,19.6591796875,2.2421875,-21.94140625
0.176,18.2177734375,6.966796875,-25.2646484375
0.1765,13.693359375,11.8515625,-25.625
0.177,10.25,15.8154296875,-26.185546875
0.1775,5.8056640625,18.09765625,-24.0634765625
0.178,-0.240234375,20.7802734375,-20.9404296875
0.1785,-5.205078125,23.22265625,-18.41796875
0.179,-9.9296875,24.904296875,-15.455078125
0.1795,-14.4541015625,26.1455078125,-12.2919921875
0.18,-18.177734375,24.1435546875,-6.6064453125
0.1805,-20.1796875,22.7021484375,-3.203125
0.181,-23.0625,19.5791015625,2.8828125
0.1815,-26.025390625,17.8974609375,7.607421875
0.182,-26.025390625,13.0927734375,12.171875
0.1825,-27.1064453125,10.6103515625,16.015625
0.183,-24.4638671875,5.4052734375,18.6181640625
0.1835,-22.1416015625,0.640625,21.1806640625
0.184,-19.21875,-4.484375,23.302734375
0.1845,-17.13671875,-9.44921875,26.1455078125
0.185,-12.8125,-13.8134765625,26.185546875
0.1855,-8.328125,-17.697265625,25.544921875
0.186,-4.2841796875,-19.1787109375,23.0625
0.1865,2.2822265625,-22.1015625,19.619140625
0.187,6.9267578125,-24.4638671875,17.4970703125
0.1875,12.251953125,-25.2646484375,13.052734375
0.188,15.6953125,-26.345703125,10.7705078125
0.1885,19.21875,-23.5830078125,4.5244140625
0.189,21.1005859375,-21.861328125,0.9208984375
0.1895,23.8232421875,-18.978515625,-4.7646484375
0.19,26.42578125,-16.896484375,-9.4892578125
0.1905,25.865234375,-12.091796875,-13.7734375
0.191,26.4658203125,-9.048828125,-17.45703125
0.1915,23.5830078125,-4.564453125,-19.0986328125
0.192,20.98046875,0.9208984375,-21.94140625
0.1925,18.6181640625,5.4052734375,-24.103515625
0.193,15.294921875,10.7705078125,-26.185546875
0.1935,12.091796875,14.25390625,-26.505859375
0.194,6.4462890625,18.0576171875,-24.6640625
0.1945,2.962890625,19.298828125,-22.421875
0.195,-3.5234375,22.341796875,-19.1787109375
0.1955,-7.9677734375,24.6240234375,-17.1767578125
0.196,-13.1728515625,24.984375,-12.2919921875
0.1965,-16.416015625,25.6650390625,-9.8896484375
0.197,-19.0986328125,22.7421875,-4.32421875
0.1975,-21.5009765625,20.7802734375,0.240234375
0.198,-23.9833984375,18.41796875,4.96484375
0.1985,-26.1455078125,15.4951171875,10.169921875
0.199,-25.5849609375,11.451171875,13.693359375
0.1995,-25.3447265625,7.3271484375,17.6171875
0.2,-22.7021484375,3.6435546875,18.6982421875
0.2005,-20.2197265625,-2.2421875,22.0615234375
0.201,-18.1376953125,-6.6865234375,24.18359375
0.2015,-14.0537109375,-12.091796875,25.5849609375
0.202,-11.4111328125,-15.0947265625,26.025390625
0.2025,-5.365234375,-18.2578125,23.22265625
0.203,-1.44140625,-19.69921875,20.8603515625
0.2035,4.32421875,-22.7021484375,18.2177734375
0.204,9.4892578125,-24.8642578125,15.455078125
0.2045,14.0537109375,-24.7041015625,11.05078125
0.205,17.296875,-24.7841796875,7.607421875
0.2055,19.37890625,-22.1015625,2.8828125
0.206,22.421875,-19.8994140625,-2.4423828125
0.2065,24.3837890625,-17.8173828125,-6.56640625
0.207,26.3056640625,-14.1337890625,-12.171875
0.2075,25.7451171875,-10.650390625,-15.1748046875
0.208,24.50390625,-6.005859375,-18.578125
0.2085,21.701171875,-2.0419921875,-19.7392578125
0.209,19.5791015625,3.5234375,-23.2626953125
0.2095,16.6962890625,8.248046875,-25.1044921875
0.21,12.6123046875,13.3330078125,-26.1455078125
0.2105,9.44921875,16.3759765625,-25.9453125
0.211,3.6435546875,19.0185546875,-22.7822265625
0.2115,-1.201171875,20.98046875,-20.099609375
0.212,-5.92578125,23.623046875,-18.09765625
0.2125,-11.69140625,25.544921875,-14.3740234375
0.213,-15.21484375,24.984375,-10.41015625
0.2135,-18.5380859375,24.1435546875,-6.24609375
0.214,-20.5,21.2607421875,-1.4013671875
0.2145,-23.8232421875,19.21875,4.083984375
0.215,-25.064453125,16.49609375,8.087890625
0.2155,-26.7060546875,12.6923828125,13.533203125
0.216,-25.7451171875,8.888671875,16.49609375
0.2165,-23.86328125,4.1640625,19.298828125
0.217,-20.8203125,-0.5205078125,20.8603515625
