wavelength,x,y,z
0.0,-2.50244140625,19.47900390625,-16.87646484375
0.0005,-5.86572265625,20.76025390625,-15.07470703125
0.001,-8.70849609375,21.28076171875,-12.99267578125
0.0015,-11.55126953125,21.44091796875,-10.55029296875
0.002,-15.55517578125,20.11962890625,-5.38525390625
0.0025,-18.39794921875,18.39794921875,-0.94091796875
0.003,-20.43994140625,16.31591796875,3.18310546875
0.0035,-21.60107421875,14.31396484375,6.34619140625
0.004,-21.36083984375,11.19091796875,9.26904296875
0.0045,-21.20068359375,7.54736328125,12.67236328125
0.005,-20.23974609375,3.02294921875,16.35595703125
0.0055,-18.27783203125,-1.82177734375,19.23876953125
0.006,-16.15576171875,-5.34521484375,20.68017578125
0.0065,-14.15380859375,-8.26806640625,21.64111328125
0.007,-11.03076171875,-11.23095703125,21.60107421875
0.0075,-5.66552734375,-15.31494140625,20.39990234375
0.008,-0.98095703125,-18.19775390625,18.83837890625
0.0085,3.86376953125,-20.47998046875,16.51611328125
0.009,7.06689453125,-21.64111328125,14.71435546875
0.0095,10.06982421875,-21.60107421875,11.87158203125
0.01,12.95263671875,-21.48095703125,9.10888671875
0.0105,16.87646484375,-20.03955078125,3.98388671875
0.011,19.67919921875,-17.75732421875,-1.06103515625
0.0115,21.08056640625,-15.79541015625,-4.42431640625
0.012,21.92138671875,-13.67333984375,-7.34716796875
0.0125,21.56103515625,-10.39013671875,-10.18994140625
0.013,20.92041015625,-5.94580078125,-14.11376953125
0.0135,19.83935546875,-1.86181640625,-17.15673828125
0.014,17.75732421875,2.82275390625,-19.75927734375
0.0145,15.55517578125,6.26611328125,-21.08056640625
0.015,12.91259765625,9.14892578125,-21.36083984375
0.0155,9.82958984375,12.23193359375,-21.44091796875
0.016,4.06396484375,16.35595703125,-19.91943359375
0.0165,-1.06103515625,18.95849609375,-17.79736328125
0.017,-4.90478515625,20.68017578125,-15.91552734375
0.0175,-7.98779296875,21.76123046875,-14.11376953125
0.018,-11.15087890625,21.48095703125,-10.87060546875
0.0185,-14.23388671875,20.84033203125,-7.38720703125
0.019,-17.59716796875,19.51904296875,-2.82275390625
0.0195,-20.19970703125,16.95654296875,2.30224609375
0.02,-21.24072265625,15.03466796875,5.30517578125
0.0205,-21.64111328125,12.51220703125,8.26806640625
0.021,-21.48095703125,9.30908203125,11.23095703125
0.0215,-20.52001953125,4.34423828125,15.35498046875
0.022,-18.99853515625,0.02001953125,18.11767578125
0.0225,-17.11669921875,-4.02392578125,20.27978515625
0.023,-15.07470703125,-7.18701171875,21.48095703125
0.0235,-11.83154296875,-10.18994140625,21.28076171875
0.024,-8.30810546875,-13.43310546875,21.08056640625
0.0245,-2.86279296875,-17.19677734375,19.51904296875
0.025,2.58251953125,-19.67919921875,16.95654296875
0.0255,5.74560546875,-20.92041015625,15.23486328125
0.026,8.70849609375,-21.72119140625,13.31298828125
0.0265,11.79150390625,-21.44091796875,10.22998046875
0.027,15.47509765625,-20.31982421875,5.58544921875
0.0275,18.43798828125,-18.75830078125,1.18115234375
0.028,20.72021484375,-16.51611328125,-3.34326171875
0.0285,21.52099609375,-14.51416015625,-6.14599609375
0.029,21.64111328125,-11.55126953125,-9.18896484375
0.0295,21.36083984375,-8.06787109375,-12.43212890625
0.03,20.35986328125,-3.34326171875,-16.19580078125
0.0305,18.31787109375,1.42138671875,-18.91845703125
0.031,16.43603515625,4.90478515625,-20.56005859375
0.0315,14.35400390625,7.98779296875,-21.64111328125
0.032,10.75048828125,11.15087890625,-21.28076171875
0.0325,6.18603515625,14.79443359375,-20.52001953125
0.033,1.18115234375,18.11767578125,-19.03857421875
0.0335,-3.98388671875,20.43994140625,-16.51611328125
0.034,-6.90673828125,21.40087890625,-14.71435546875
0.0345,-9.86962890625,21.80126953125,-12.35205078125
0.035,-13.07275390625,21.48095703125,-9.10888671875
0.0355,-16.79638671875,20.03955078125,-4.14404296875
0.036,-19.51904296875,17.99755859375,0.62060546875
0.0365,-21.36083984375,15.95556640625,4.50439453125
0.037,-21.92138671875,13.63330078125,7.38720703125
0.0375,-21.80126953125,10.22998046875,10.59033203125
0.038,-21.24072265625,6.10595703125,14.23388671875
0.0385,-20.11962890625,1.58154296875,17.67724609375
0.039,-17.83740234375,-3.18310546875,20.15966796875
0.0395,-15.83544921875,-6.38623046875,21.40087890625
0.04,-13.43310546875,-9.34912109375,22.04150390625
0.0405,-9.58935546875,-12.67236328125,21.56103515625
0.041,-4.42431640625,-16.39599609375,20.19970703125
0.0415,0.74072265625,-19.27880859375,18.27783203125
0.042,5.18505859375,-21.20068359375,16.07568359375
0.0425,7.98779296875,-21.92138671875,14.11376953125
0.043,11.23095703125,-21.92138671875,11.23095703125
0.0435,14.59423828125,-21.28076171875,7.42724609375
0.044,17.99755859375,-19.71923828125,2.58251953125
0.0445,20.52001953125,-17.31689453125,-2.30224609375
0.045,21.88134765625,-15.39501953125,-5.62548828125
0.0455,22.28173828125,-12.79248046875,-8.50830078125
0.046,21.92138671875,-9.14892578125,-11.87158203125
0.0465,20.96044921875,-4.62451171875,-15.47509765625
0.047,19.51904296875,-0.18017578125,-18.55810546875
0.0475,17.23681640625,4.34423828125,-20.76025390625
0.048,14.87451171875,7.34716796875,-21.52099609375
0.0485,12.19189453125,10.39013671875,-21.92138671875
0.049,7.82763671875,13.99365234375,-21.32080078125
0.0495,2.62255859375,17.43701171875,-19.71923828125
0.05,-2.54248046875,19.95947265625,-17.31689453125
0.0505,-6.26611328125,21.64111328125,-15.51513671875
0.051,-9.06884765625,21.96142578125,-13.31298828125
0.0515,-12.19189453125,21.84130859375,-10.27001953125
0.052,-15.75537109375,20.84033203125,-5.90576171875
0.0525,-18.91845703125,19.07861328125,-1.10107421875
0.053,-21.08056640625,16.63623046875,3.50341796875
0.0535,-22.00146484375,14.55419921875,6.42626953125
0.054,-22.24169921875,11.71142578125,9.54931640625
0.0545,-21.72119140625,7.54736328125,13.23291015625
0.055,-20.56005859375,3.10302734375,16.59619140625
0.0555,-18.75830078125,-1.46142578125,19.31884765625
0.056,-16.71630859375,-5.46533203125,21.36083984375
0.0565,-14.27392578125,-8.30810546875,21.76123046875
0.057,-11.23095703125,-11.39111328125,21.80126953125
0.0575,-6.42626953125,-15.15478515625,21.00048828125
0.058,-1.14111328125,-18.35791015625,19.07861328125
0.0585,3.66357421875,-20.35986328125,16.67626953125
0.059,6.86669921875,-21.64111328125,14.99462890625
0.0595,9.86962890625,-21.96142578125,12.51220703125
0.06,13.11279296875,-21.48095703125,8.98876953125
0.0605,16.55615234375,-20.35986328125,4.54443359375
0.061,19.51904296875,-18.27783203125,-0.38037109375
0.0615,21.40087890625,-16.07568359375,-4.42431640625
0.062,21.88134765625,-13.83349609375,-7.14697265625
0.0625,22.00146484375,-10.87060546875,-10.22998046875
0.063,21.28076171875,-6.34619140625,-14.11376953125
0.0635,20.03955078125,-1.98193359375,-17.27685546875
0.064,17.87744140625,2.50244140625,-19.51904296875
0.0645,16.03564453125,6.02587890625,-21.28076171875
0.065,13.31298828125,8.94873046875,-21.52099609375
0.0655,9.70947265625,12.15185546875,-21.28076171875
0.066,4.90478515625,15.83544921875,-20.23974609375
0.0665,-0.58056640625,18.91845703125,-18.19775390625
0.067,-4.82470703125,20.68017578125,-15.95556640625
0.0675,-7.62744140625,21.52099609375,-14.19384765625
0.068,-10.71044921875,21.80126953125,-11.67138671875
0.0685,-14.19384765625,21.00048828125,-7.50732421875
0.069,-17.31689453125,19.59912109375,-3.18310546875
0.0695,-19.87939453125,17.35693359375,1.58154296875
0.07,-21.52099609375,15.35498046875,5.14501953125
0.0705,-21.64111328125,12.71240234375,7.94775390625
0.071,-21.64111328125,9.50927734375,11.23095703125
0.0715,-20.80029296875,4.86474609375,15.03466796875
0.072,-19.35888671875,0.34033203125,18.19775390625
0.0725,-17.15673828125,-3.82373046875,20.07958984375
0.073,-15.35498046875,-6.90673828125,21.40087890625
0.0735,-12.51220703125,-9.82958984375,21.64111328125
0.074,-8.10791015625,-13.43310546875,20.96044921875
0.0745,-3.54345703125,-16.63623046875,19.67919921875
0.075,1.78173828125,-19.31884765625,17.35693359375
0.0755,5.62548828125,-21.00048828125,15.43505859375
0.076,8.26806640625,-21.32080078125,13.35302734375
0.0765,11.23095703125,-21.60107421875,10.87060546875
0.077,15.15478515625,-20.47998046875,6.02587890625
0.0775,18.07763671875,-18.75830078125,1.58154296875
0.078,20.19970703125,-16.63623046875,-2.66259765625
0.0785,21.48095703125,-14.79443359375,-5.78564453125
0.079,21.44091796875,-11.95166015625,-8.62841796875
0.0795,21.12060546875,-8.14794921875,-12.19189453125
0.08,20.15966796875,-3.94384765625,-15.39501953125
0.0805,18.47802734375,0.66064453125,-18.31787109375
0.081,16.35595703125,4.50439453125,-20.11962890625
0.0815,14.23388671875,7.30712890625,-20.76025390625
0.082,11.59130859375,10.22998046875,-21.16064453125
0.0825,6.38623046875,14.23388671875,-20.11962890625
0.083,1.86181640625,17.15673828125,-18.55810546875
0.0835,-2.82275390625,19.35888671875,-16.39599609375
0.084,-6.22607421875,20.88037109375,-14.83447265625
0.0845,-8.90869140625,20.88037109375,-12.43212890625
0.085,-11.83154296875,20.84033203125,-9.62939453125
0.0855,-15.51513671875,19.79931640625,-5.06494140625
0.086,-18.31787109375,17.75732421875,-0.30029296875
0.0865,-19.99951171875,15.75537109375,3.38330078125
0.087,-20.84033203125,13.79345703125,6.14599609375
0.0875,-20.96044921875,10.95068359375,9.02880859375
0.088,-20.35986328125,6.46630859375,12.99267578125
0.0885,-19.27880859375,2.58251953125,15.83544921875
0.089,-17.47705078125,-1.78173828125,18.39794921875
0.0895,-15.67529296875,-5.26513671875,20.15966796875
0.09,-13.19287109375,-7.82763671875,20.23974609375
0.0905,-10.51025390625,-10.71044921875,20.56005859375
0.091,-5.30517578125,-14.67431640625,19.47900390625
0.0915,-0.34033203125,-17.43701171875,17.47705078125
0.092,3.46337890625,-19.19873046875,15.63525390625
0.0925,6.46630859375,-20.47998046875,14.15380859375
0.093,9.26904296875,-20.52001953125,11.67138671875
0.0935,12.55224609375,-19.95947265625,7.98779296875
0.094,15.71533203125,-18.95849609375,4.02392578125
0.0945,18.35791015625,-16.91650390625,-0.66064453125
0.095,19.87939453125,-15.11474609375,-3.90380859375
0.0955,20.19970703125,-12.87255859375,-6.46630859375
0.096,20.43994140625,-10.22998046875,-9.34912109375
0.0965,19.67919921875,-5.54541015625,-13.43310546875
0.097,18.39794921875,-1.50146484375,-16.19580078125
0.0975,16.59619140625,2.38232421875,-18.19775390625
0.098,15.07470703125,5.62548828125,-19.95947265625
0.0985,12.19189453125,8.34814453125,-19.91943359375
0.099,8.70849609375,11.67138671875,-19.83935546875
0.0995,4.14404296875,15.19482421875,-18.83837890625
0.1,-1.14111328125,17.95751953125,-16.67626953125
0.1005,-4.42431640625,19.47900390625,-15.07470703125
0.101,-7.14697265625,20.31982421875,-13.43310546875
0.1015,-9.94970703125,20.56005859375,-11.15087890625
0.102,-13.83349609375,19.51904296875,-6.38623046875
0.1025,-16.63623046875,18.23779296875,-2.42236328125
0.103,-18.91845703125,16.31591796875,1.74169921875
0.1035,-20.27978515625,14.51416015625,4.82470703125
0.104,-20.31982421875,11.67138671875,7.58740234375
0.1045,-20.35986328125,8.58837890625,10.83056640625
0.105,-19.59912109375,4.10400390625,14.63427734375
0.1055,-17.95751953125,-0.46044921875,17.55712890625
0.106,-16.07568359375,-3.90380859375,19.15869140625
0.1065,-14.43408203125,-6.78662109375,20.47998046875
0.107,-11.55126953125,-9.62939453125,20.47998046875
0.1075,-6.74658203125,-13.47314453125,19.71923828125
0.108,-2.42236328125,-16.51611328125,18.51806640625
0.1085,2.54248046875,-18.91845703125,16.31591796875
0.109,5.70556640625,-20.27978515625,14.71435546875
0.1095,8.46826171875,-20.52001953125,12.43212890625
0.11,11.27099609375,-20.72021484375,9.94970703125
0.1105,15.31494140625,-19.51904296875,4.94482421875
0.111,18.07763671875,-17.59716796875,0.34033203125
0.1115,19.75927734375,-15.75537109375,-3.14306640625
0.112,20.72021484375,-13.91357421875,-5.94580078125
0.1125,20.60009765625,-10.95068359375,-8.90869140625
0.113,20.23974609375,-6.94677734375,-12.55224609375
0.1135,19.35888671875,-2.86279296875,-15.71533203125
0.114,17.47705078125,1.78173828125,-18.43798828125
0.1145,15.51513671875,5.10498046875,-19.87939453125
0.115,13.27294921875,7.94775390625,-20.47998046875
0.1155,10.35009765625,10.87060546875,-20.68017578125
0.116,4.86474609375,14.99462890625,-19.39892578125
0.1165,0.22021484375,17.67724609375,-17.63720703125
0.117,-3.86376953125,19.59912109375,-15.75537109375
0.1175,-6.94677734375,20.80029296875,-14.11376953125
0.118,-9.90966796875,20.68017578125,-11.27099609375
0.1185,-12.83251953125,20.35986328125,-8.18798828125
0.119,-16.35595703125,19.11865234375,-3.62353515625
0.1195,-18.95849609375,16.79638671875,1.34130859375
0.12,-20.15966796875,14.91455078125,4.34423828125
0.1205,-20.76025390625,12.67236328125,7.10693359375
0.121,-20.52001953125,9.86962890625,9.94970703125
0.1215,-19.83935546875,5.06494140625,13.99365234375
0.122,-18.55810546875,0.98095703125,16.75634765625
0.1225,-16.75634765625,-3.10302734375,19.03857421875
0.123,-14.91455078125,-6.22607421875,20.31982421875
0.1235,-12.11181640625,-8.94873046875,20.31982421875
0.124,-8.94873046875,-12.03173828125,20.31982421875
0.1245,-3.58349609375,-15.79541015625,18.91845703125
0.125,1.46142578125,-18.23779296875,16.63623046875
0.1255,4.62451171875,-19.67919921875,15.07470703125
0.126,7.50732421875,-20.60009765625,13.39306640625
0.1265,10.31005859375,-20.43994140625,10.59033203125
0.127,13.79345703125,-19.51904296875,6.38623046875
0.1275,16.75634765625,-18.23779296875,2.26220703125
0.128,19.07861328125,-16.15576171875,-2.14208984375
0.1285,19.99951171875,-14.39404296875,-4.78466796875
0.129,20.19970703125,-11.91162109375,-7.58740234375
0.1295,20.07958984375,-8.90869140625,-10.39013671875
0.13,19.23876953125,-4.26416015625,-14.23388671875
0.1305,17.55712890625,0.06005859375,-16.83642578125
0.131,15.91552734375,3.46337890625,-18.55810546875
0.1315,14.15380859375,6.42626953125,-19.87939453125
0.132,11.15087890625,9.18896484375,-19.71923828125
0.1325,7.14697265625,12.71240234375,-19.31884765625
0.133,2.54248046875,15.99560546875,-18.11767578125
0.1335,-2.46240234375,18.31787109375,-15.79541015625
0.134,-5.22509765625,19.47900390625,-14.39404296875
0.1345,-7.98779296875,20.11962890625,-12.47216796875
0.135,-10.75048828125,20.11962890625,-9.74951171875
0.1355,-14.43408203125,18.91845703125,-5.18505859375
0.136,-17.11669921875,17.23681640625,-0.98095703125
0.1365,-18.95849609375,15.39501953125,2.70263671875
0.137,-19.79931640625,13.51318359375,5.34521484375
0.1375,-19.75927734375,10.71044921875,8.18798828125
0.138,-19.55908203125,7.22705078125,11.51123046875
0.1385,-18.75830078125,2.98291015625,14.91455078125
0.139,-16.87646484375,-1.42138671875,17.47705078125
0.1395,-15.23486328125,-4.42431640625,18.91845703125
0.14,-13.43310546875,-7.18701171875,19.87939453125
0.1405,-10.31005859375,-10.06982421875,19.71923828125
0.141,-5.42529296875,-13.83349609375,18.71826171875
0.1415,-0.98095703125,-16.67626953125,17.31689453125
0.142,3.34326171875,-18.71826171875,15.31494140625
0.1425,6.02587890625,-19.71923828125,13.79345703125
0.143,9.02880859375,-19.95947265625,11.39111328125
0.1435,11.87158203125,-19.71923828125,8.42822265625
0.144,15.39501953125,-18.55810546875,3.90380859375
0.1445,17.91748046875,-16.55615234375,-0.66064453125
0.145,19.35888671875,-14.91455078125,-3.70361328125
0.1455,19.99951171875,-12.83251953125,-6.34619140625
0.146,19.87939453125,-9.86962890625,-9.22900390625
0.1465,19.23876953125,-5.70556640625,-12.83251953125
0.147,18.23779296875,-1.66162109375,-15.87548828125
0.1475,16.35595703125,2.54248046875,-18.19775390625
0.148,14.59423828125,5.46533203125,-19.27880859375
0.1485,12.23193359375,8.26806640625,-19.83935546875
0.149,8.70849609375,11.51123046875,-19.71923828125
0.1495,3.78369140625,15.07470703125,-18.39794921875
0.15,-1.06103515625,17.63720703125,-16.39599609375
0.1505,-4.50439453125,19.35888671875,-14.87451171875
0.151,-7.22705078125,20.07958984375,-13.19287109375
0.1515,-10.10986328125,20.03955078125,-10.47021484375
0.152,-13.43310546875,19.35888671875,-6.70654296875
0.1525,-16.51611328125,17.95751953125,-2.38232421875
0.153,-18.71826171875,15.83544921875,1.98193359375
0.1535,-19.79931640625,14.11376953125,4.74462890625
0.154,-20.19970703125,11.75146484375,7.54736328125
0.1545,-19.91943359375,8.38818359375,10.71044921875
0.155,-19.07861328125,4.02392578125,14.23388671875
0.1555,-17.63720703125,-0.18017578125,16.95654296875
0.156,-15.95556640625,-3.86376953125,19.03857421875
0.1565,-14.07373046875,-6.58642578125,19.87939453125
0.157,-11.31103515625,-9.38916015625,19.99951171875
0.1575,-7.30712890625,-12.91259765625,19.59912109375
0.158,-2.26220703125,-16.15576171875,18.03759765625
0.1585,2.42236328125,-18.35791015625,15.83544921875
0.159,5.30517578125,-19.67919921875,14.43408203125
0.1595,8.02783203125,-20.23974609375,12.51220703125
0.16,11.03076171875,-19.99951171875,9.46923828125
0.1605,14.39404296875,-19.07861328125,5.26513671875
0.161,17.23681640625,-17.39697265625,0.94091796875
0.1615,19.19873046875,-15.39501953125,-3.02294921875
0.162,19.83935546875,-13.51318359375,-5.46533203125
0.1625,20.03955078125,-10.87060546875,-8.34814453125
0.163,19.59912109375,-7.14697265625,-11.71142578125
0.1635,18.71826171875,-2.98291015625,-14.95458984375
0.164,16.83642578125,1.30126953125,-17.31689453125
0.1645,15.27490234375,4.50439453125,-19.07861328125
0.165,13.11279296875,7.26708984375,-19.71923828125
0.1655,10.02978515625,10.22998046875,-19.59912109375
0.166,5.62548828125,13.75341796875,-18.91845703125
0.1665,0.78076171875,16.79638671875,-17.27685546875
0.167,-3.50341796875,18.75830078125,-15.19482421875
0.1675,-6.10595703125,19.71923828125,-13.79345703125
0.168,-8.94873046875,20.15966796875,-11.67138671875
0.1685,-12.15185546875,19.71923828125,-8.18798828125
0.169,-15.31494140625,18.55810546875,-4.06396484375
0.1695,-17.87744140625,16.63623046875,0.38037109375
0.17,-19.59912109375,14.87451171875,3.86376953125
0.1705,-19.99951171875,12.75244140625,6.38623046875
0.171,-20.11962890625,9.74951171875,9.46923828125
0.1715,-19.51904296875,5.58544921875,13.07275390625
0.172,-18.43798828125,1.34130859375,16.27587890625
0.1725,-16.39599609375,-2.74267578125,18.35791015625
0.173,-14.87451171875,-5.62548828125,19.71923828125
0.1735,-12.55224609375,-8.42822265625,20.23974609375
0.174,-8.62841796875,-11.83154296875,19.79931640625
0.1745,-4.14404296875,-15.07470703125,18.71826171875
0.175,0.86083984375,-17.79736328125,16.71630859375
0.1755,4.66455078125,-19.55908203125,14.95458984375
0.176,7.10693359375,-20.15966796875,13.19287109375
0.1765,10.06982421875,-20.47998046875,10.87060546875
0.177,13.71337890625,-19.67919921875,6.54638671875
0.1775,16.67626953125,-18.19775390625,2.30224609375
0.178,18.87841796875,-16.15576171875,-1.94189453125
0.1785,20.27978515625,-14.47412109375,-4.98486328125
0.179,20.43994140625,-11.91162109375,-7.62744140625
0.1795,20.23974609375,-8.46826171875,-10.99072265625
0.18,19.47900390625,-4.34423828125,-14.27392578125
0.1805,17.99755859375,0.10009765625,-17.31689453125
0.181,15.99560546875,3.98388671875,-19.19873046875
0.1815,14.07373046875,6.66650390625,-19.99951171875
0.182,11.51123046875,9.58935546875,-20.43994140625
0.1825,6.78662109375,13.43310546875,-19.67919921875
0.183,2.30224609375,16.35595703125,-18.27783203125
0.1835,-2.42236328125,18.59814453125,-16.15576171875
0.184,-5.78564453125,20.23974609375,-14.59423828125
0.1845,-8.42822265625,20.43994140625,-12.35205078125
0.185,-11.31103515625,20.43994140625,-9.78955078125
0.1855,-14.99462890625,19.47900390625,-5.26513671875
0.186,-17.79736328125,17.59716796875,-0.66064453125
0.1865,-19.59912109375,15.59521484375,3.14306640625
0.187,-20.52001953125,13.71337890625,5.90576171875
0.1875,-20.64013671875,10.91064453125,8.82861328125
0.188,-20.15966796875,6.70654296875,12.59228515625
0.1885,-19.11865234375,2.82275390625,15.51513671875
0.189,-17.35693359375,-1.62158203125,18.11767578125
0.1895,-15.55517578125,-5.18505859375,19.91943359375
0.19,-13.19287109375,-7.70751953125,20.15966796875
0.1905,-10.55029296875,-10.55029296875,20.43994140625
0.191,-5.42529296875,-14.47412109375,19.35888671875
0.1915,-0.58056640625,-17.31689453125,17.47705078125
