wavelength,x,y,z
0.0,20.47998046875,-2.42236328125,-17.23681640625
0.0005,18.43798828125,2.18212890625,-19.83935546875
0.001,16.19580078125,5.94580078125,-21.40087890625
0.0015,13.27294921875,8.90869140625,-21.48095703125
0.002,10.27001953125,12.19189453125,-21.84130859375
0.0025,4.58447265625,16.39599609375,-20.47998046875
0.003,-0.50048828125,19.07861328125,-18.39794921875
0.0035,-4.42431640625,20.80029296875,-16.39599609375
0.004,-7.70751953125,22.08154296875,-14.59423828125
0.0045,-10.83056640625,21.88134765625,-11.55126953125
0.005,-14.07373046875,21.40087890625,-8.02783203125
0.0055,-17.31689453125,20.23974609375,-3.78369140625
0.006,-19.91943359375,17.83740234375,1.18115234375
0.0065,-21.20068359375,15.71533203125,4.50439453125
0.007,-21.60107421875,13.15283203125,7.46728515625
0.0075,-21.72119140625,10.22998046875,10.55029296875
0.008,-20.76025390625,4.98486328125,14.87451171875
0.0085,-19.27880859375,0.82080078125,17.55712890625
0.009,-17.35693359375,-3.14306640625,19.59912109375
0.0095,-15.47509765625,-6.62646484375,21.20068359375
0.01,-12.23193359375,-9.50927734375,21.00048828125
0.0105,-8.66845703125,-12.95263671875,20.96044921875
0.011,-3.70361328125,-16.59619140625,19.75927734375
0.0115,1.62158203125,-19.19873046875,17.31689453125
0.012,4.98486328125,-20.52001953125,15.55517578125
0.0125,8.02783203125,-21.44091796875,13.59326171875
0.013,10.95068359375,-21.48095703125,11.03076171875
0.0135,14.79443359375,-20.47998046875,6.38623046875
0.014,17.55712890625,-19.15869140625,2.42236328125
0.0145,19.79931640625,-17.03662109375,-1.78173828125
0.015,20.92041015625,-15.07470703125,-4.98486328125
0.0155,20.88037109375,-12.19189453125,-7.82763671875
0.016,20.92041015625,-8.98876953125,-11.07080078125
0.0165,19.99951171875,-4.30419921875,-14.87451171875
0.017,18.15771484375,0.22021484375,-17.63720703125
0.0175,16.27587890625,3.66357421875,-19.19873046875
0.018,14.35400390625,6.86669921875,-20.47998046875
0.0185,11.23095703125,9.86962890625,-20.43994140625
0.019,6.54638671875,13.71337890625,-19.71923828125
0.0195,2.26220703125,16.75634765625,-18.59814453125
0.02,-2.66259765625,19.11865234375,-16.35595703125
0.0205,-5.74560546875,20.31982421875,-14.67431640625
0.021,-8.66845703125,20.68017578125,-12.35205078125
0.0215,-11.39111328125,20.84033203125,-10.06982421875
0.022,-15.27490234375,19.67919921875,-5.14501953125
0.0225,-17.79736328125,17.79736328125,-0.90087890625
0.023,-19.47900390625,15.99560546875,2.58251953125
0.0235,-20.43994140625,13.95361328125,5.58544921875
0.024,-20.23974609375,10.95068359375,8.42822265625
0.0245,-19.91943359375,7.06689453125,12.03173828125
0.025,-19.07861328125,2.94287109375,15.23486328125
0.0255,-17.23681640625,-1.46142578125,17.75732421875
0.026,-15.31494140625,-4.62451171875,19.11865234375
0.0265,-13.19287109375,-7.46728515625,19.87939453125
0.027,-10.39013671875,-10.31005859375,20.03955078125
0.0275,-5.10498046875,-14.35400390625,18.83837890625
0.028,-0.70068359375,-16.95654296875,17.31689453125
0.0285,3.26318359375,-18.91845703125,15.51513671875
0.029,6.22607421875,-19.99951171875,13.91357421875
0.0295,9.14892578125,-20.03955078125,11.27099609375
0.03,11.99169921875,-19.99951171875,8.54833984375
0.0305,15.39501953125,-18.95849609375,4.30419921875
0.031,17.87744140625,-16.83642578125,-0.26025390625
0.0315,19.07861328125,-15.19482421875,-3.06298828125
0.032,19.79931640625,-13.07275390625,-5.90576171875
0.0325,19.75927734375,-10.35009765625,-8.62841796875
0.033,19.03857421875,-5.82568359375,-12.55224609375
0.0335,18.07763671875,-2.10205078125,-15.35498046875
0.034,16.39599609375,1.86181640625,-17.51708984375
0.0345,14.55419921875,4.98486328125,-18.83837890625
0.035,11.91162109375,7.82763671875,-19.07861328125
0.0355,8.86865234375,11.03076171875,-19.31884765625
0.036,3.86376953125,14.75439453125,-18.23779296875
0.0365,-0.82080078125,17.23681640625,-16.15576171875
0.037,-3.90380859375,18.71826171875,-14.79443359375
0.0375,-6.78662109375,19.75927734375,-13.19287109375
0.038,-9.54931640625,19.79931640625,-10.71044921875
0.0385,-12.91259765625,19.23876953125,-6.94677734375
0.039,-15.75537109375,18.11767578125,-3.18310546875
0.0395,-17.99755859375,16.11572265625,1.10107421875
0.04,-18.99853515625,14.39404296875,3.78369140625
0.0405,-19.35888671875,11.91162109375,6.54638671875
0.041,-19.47900390625,9.02880859375,9.54931640625
0.0415,-18.63818359375,4.42431640625,13.39306640625
0.042,-17.23681640625,0.42041015625,16.03564453125
0.0425,-15.75537109375,-2.98291015625,17.91748046875
0.043,-13.95361328125,-5.90576171875,19.07861328125
0.0435,-11.11083984375,-8.78857421875,19.19873046875
0.044,-7.18701171875,-12.35205078125,18.95849609375
0.0445,-2.58251953125,-15.63525390625,17.79736328125
0.045,2.10205078125,-17.95751953125,15.67529296875
0.0455,4.82470703125,-19.07861328125,14.31396484375
0.046,7.70751953125,-19.83935546875,12.35205078125
0.0465,10.51025390625,-19.87939453125,9.82958984375
0.047,14.11376953125,-18.91845703125,5.46533203125
0.0475,16.71630859375,-17.43701171875,1.46142578125
0.048,18.71826171875,-15.67529296875,-2.26220703125
0.0485,19.39892578125,-13.71337890625,-4.90478515625
0.049,19.51904296875,-10.91064453125,-7.86767578125
0.0495,19.35888671875,-7.46728515625,-11.23095703125
0.05,18.55810546875,-3.22314453125,-14.59423828125
0.0505,16.67626953125,1.10107421875,-16.99658203125
0.051,15.07470703125,4.10400390625,-18.43798828125
0.0515,12.95263671875,7.10693359375,-19.39892578125
0.052,9.78955078125,10.14990234375,-19.35888671875
0.0525,5.14501953125,13.83349609375,-18.55810546875
0.053,0.70068359375,16.79638671875,-17.19677734375
0.0535,-3.54345703125,18.83837890625,-15.23486328125
0.054,-6.26611328125,19.67919921875,-13.59326171875
0.0545,-9.18896484375,20.07958984375,-11.31103515625
0.055,-12.19189453125,19.87939453125,-8.26806640625
0.0555,-15.51513671875,18.67822265625,-3.94384765625
0.056,-17.91748046875,16.67626953125,0.42041015625
0.0565,-19.43896484375,14.91455078125,3.58349609375
0.057,-19.91943359375,12.67236328125,6.38623046875
0.0575,-19.83935546875,9.54931640625,9.34912109375
0.058,-19.11865234375,5.42529296875,12.91259765625
0.0585,-18.11767578125,1.34130859375,15.99560546875
0.059,-16.19580078125,-2.70263671875,18.07763671875
0.0595,-14.35400390625,-5.50537109375,19.07861328125
0.06,-12.03173828125,-8.38818359375,19.71923828125
0.0605,-8.34814453125,-11.67138671875,19.39892578125
0.061,-3.58349609375,-15.07470703125,18.19775390625
0.0615,0.98095703125,-17.55712890625,16.35595703125
0.062,4.50439453125,-19.23876953125,14.71435546875
0.0625,7.18701171875,-19.79931640625,12.83251953125
0.063,9.98974609375,-19.91943359375,10.35009765625
0.0635,13.27294921875,-19.39892578125,6.74658203125
0.064,16.19580078125,-18.03759765625,2.58251953125
0.0645,18.31787109375,-15.99560546875,-1.58154296875
0.065,19.27880859375,-14.27392578125,-4.26416015625
0.0655,19.67919921875,-11.83154296875,-7.06689453125
0.066,19.43896484375,-8.58837890625,-10.18994140625
0.0665,18.55810546875,-4.34423828125,-13.43310546875
0.067,17.23681640625,-0.38037109375,-16.11572265625
0.0675,15.51513671875,3.30322265625,-18.07763671875
0.068,13.39306640625,6.02587890625,-18.71826171875
0.0685,10.91064453125,8.86865234375,-19.15869140625
0.069,6.82666015625,12.47216796875,-18.75830078125
0.0695,2.26220703125,15.55517578125,-17.47705078125
0.07,-2.06201171875,17.63720703125,-15.43505859375
0.0705,-5.02490234375,19.07861328125,-14.11376953125
0.071,-7.74755859375,19.51904296875,-12.15185546875
0.0715,-10.55029296875,19.51904296875,-9.46923828125
0.072,-13.79345703125,18.75830078125,-5.62548828125
0.0725,-16.51611328125,17.15673828125,-1.54150390625
0.073,-18.43798828125,15.23486328125,2.30224609375
0.0735,-19.03857421875,13.31298828125,4.82470703125
0.074,-19.39892578125,10.83056640625,7.70751953125
0.0745,-19.03857421875,7.06689453125,11.19091796875
0.075,-18.11767578125,3.06298828125,14.31396484375
0.0755,-16.51611328125,-0.98095703125,16.63623046875
0.076,-15.07470703125,-4.18408203125,18.47802734375
0.0765,-12.83251953125,-6.90673828125,18.95849609375
0.077,-9.94970703125,-9.82958984375,19.11865234375
0.0775,-5.62548828125,-13.43310546875,18.51806640625
0.078,-0.94091796875,-16.43603515625,16.95654296875
0.0785,3.14306640625,-18.31787109375,15.11474609375
0.079,5.74560546875,-19.35888671875,13.71337890625
0.0795,8.66845703125,-19.87939453125,11.55126953125
0.08,11.83154296875,-19.51904296875,8.18798828125
0.0805,14.95458984375,-18.63818359375,4.34423828125
0.081,17.47705078125,-16.87646484375,0.14013671875
0.0815,19.23876953125,-15.03466796875,-3.26318359375
0.082,19.51904296875,-12.79248046875,-5.90576171875
0.0825,19.71923828125,-10.02978515625,-8.90869140625
0.083,19.11865234375,-5.74560546875,-12.63232421875
0.0835,18.07763671875,-1.70166015625,-15.67529296875
0.084,16.19580078125,2.22216796875,-17.63720703125
0.0845,14.59423828125,5.26513671875,-19.15869140625
0.085,12.03173828125,8.18798828125,-19.55908203125
0.0855,8.14794921875,11.59130859375,-19.35888671875
0.086,3.98388671875,14.91455078125,-18.43798828125
0.0865,-0.98095703125,17.71728515625,-16.59619140625
0.087,-4.62451171875,19.47900390625,-14.83447265625
0.0875,-7.22705078125,19.95947265625,-12.99267578125
0.088,-10.10986328125,20.43994140625,-10.83056640625
0.0885,-13.79345703125,19.59912109375,-6.58642578125
0.089,-16.59619140625,18.27783203125,-2.58251953125
0.0895,-18.71826171875,16.31591796875,1.46142578125
0.09,-20.19970703125,14.55419921875,4.74462890625
0.0905,-20.23974609375,11.79150390625,7.54736328125
0.091,-20.19970703125,8.38818359375,10.91064453125
0.0915,-19.35888671875,4.14404296875,14.39404296875
0.092,-17.91748046875,-0.34033203125,17.35693359375
0.0925,-15.87548828125,-3.98388671875,19.11865234375
0.093,-13.95361328125,-6.74658203125,19.95947265625
0.0935,-11.39111328125,-9.74951171875,20.47998046875
0.094,-6.50634765625,-13.71337890625,19.59912109375
0.0945,-2.18212890625,-16.55615234375,18.27783203125
0.095,2.54248046875,-18.91845703125,16.23583984375
0.0955,5.98583984375,-20.43994140625,14.59423828125
0.096,8.74853515625,-20.52001953125,12.11181640625
0.0965,11.59130859375,-20.80029296875,9.66943359375
0.097,15.35498046875,-19.83935546875,5.14501953125
0.0975,18.11767578125,-17.95751953125,0.66064453125
0.098,19.87939453125,-15.99560546875,-3.06298828125
0.0985,20.76025390625,-13.91357421875,-6.02587890625
0.099,20.80029296875,-11.03076171875,-8.94873046875
0.0995,20.31982421875,-6.74658203125,-12.79248046875
0.1,19.27880859375,-2.86279296875,-15.67529296875
0.1005,17.47705078125,1.58154296875,-18.27783203125
0.101,15.47509765625,5.22509765625,-19.99951171875
0.1015,12.83251953125,7.98779296875,-20.15966796875
0.102,10.14990234375,11.07080078125,-20.56005859375
0.1025,4.78466796875,15.19482421875,-19.47900390625
0.103,0.06005859375,17.91748046875,-17.71728515625
0.1035,-3.90380859375,19.67919921875,-15.75537109375
0.104,-7.10693359375,21.00048828125,-14.11376953125
0.1045,-10.06982421875,20.88037109375,-11.31103515625
0.105,-13.15283203125,20.47998046875,-8.06787109375
0.1055,-16.43603515625,19.51904296875,-3.94384765625
0.106,-19.07861328125,17.31689453125,0.94091796875
0.1065,-20.47998046875,15.31494140625,4.30419921875
0.107,-20.88037109375,12.87255859375,7.06689453125
0.1075,-21.00048828125,10.02978515625,10.06982421875
0.108,-20.11962890625,5.02490234375,14.23388671875
0.1085,-18.83837890625,1.06103515625,16.95654296875
0.109,-16.99658203125,-2.94287109375,19.07861328125
0.1095,-15.15478515625,-6.38623046875,20.72021484375
0.11,-12.03173828125,-9.22900390625,20.52001953125
0.1105,-8.74853515625,-12.51220703125,20.60009765625
0.111,-3.70361328125,-16.19580078125,19.47900390625
0.1115,1.54150390625,-18.91845703125,17.15673828125
0.112,4.98486328125,-20.35986328125,15.39501953125
0.1125,8.02783203125,-21.28076171875,13.47314453125
0.113,11.03076171875,-21.32080078125,10.79052734375
0.1135,14.75439453125,-20.39990234375,6.38623046875
0.114,17.55712890625,-19.15869140625,2.42236328125
0.1145,19.91943359375,-16.99658203125,-2.06201171875
0.115,21.12060546875,-14.99462890625,-5.30517578125
0.1155,21.12060546875,-12.03173828125,-8.18798828125
0.116,21.16064453125,-8.98876953125,-11.35107421875
0.1165,20.19970703125,-4.10400390625,-15.31494140625
0.117,18.43798828125,0.46044921875,-18.07763671875
0.1175,16.43603515625,4.10400390625,-19.71923828125
0.118,14.39404296875,7.34716796875,-21.08056640625
0.1185,11.07080078125,10.51025390625,-20.92041015625
0.119,6.54638671875,14.31396484375,-20.31982421875
0.1195,2.06201171875,17.51708984375,-19.19873046875
0.12,-3.26318359375,20.03955078125,-16.71630859375
0.1205,-6.50634765625,21.16064453125,-14.87451171875
0.121,-9.54931640625,21.60107421875,-12.47216796875
0.1215,-12.43212890625,21.64111328125,-9.90966796875
0.122,-16.35595703125,20.31982421875,-4.78466796875
0.1225,-19.07861328125,18.47802734375,-0.34033203125
0.123,-20.84033203125,16.35595703125,3.54345703125
0.1235,-21.80126953125,14.15380859375,6.70654296875
0.124,-21.52099609375,10.79052734375,9.78955078125
0.1245,-21.16064453125,6.90673828125,13.39306640625
0.125,-20.15966796875,2.42236328125,16.87646484375
0.1255,-18.07763671875,-2.42236328125,19.55908203125
0.126,-15.87548828125,-5.74560546875,20.84033203125
0.1265,-13.63330078125,-8.82861328125,21.68115234375
0.127,-10.18994140625,-12.03173828125,21.48095703125
0.1275,-4.74462890625,-16.03564453125,20.19970703125
0.128,0.02001953125,-18.87841796875,18.55810546875
0.1285,4.50439453125,-20.96044921875,16.35595703125
0.129,7.66748046875,-21.92138671875,14.39404296875
0.1295,10.91064453125,-21.80126953125,11.39111328125
0.13,13.87353515625,-21.60107421875,8.46826171875
0.1305,17.47705078125,-20.19970703125,3.54345703125
0.131,20.15966796875,-17.83740234375,-1.42138671875
0.1315,21.44091796875,-15.87548828125,-4.66455078125
0.132,22.04150390625,-13.43310546875,-7.70751953125
0.1325,21.64111328125,-10.06982421875,-10.75048828125
0.133,20.84033203125,-5.34521484375,-14.71435546875
0.1335,19.63916015625,-1.22119140625,-17.63720703125
0.134,17.55712890625,3.30322265625,-20.03955078125
0.1345,15.19482421875,6.66650390625,-21.08056640625
0.135,12.31201171875,9.74951171875,-21.36083984375
0.1355,8.78857421875,13.11279296875,-21.28076171875
0.136,3.18310546875,16.95654296875,-19.87939453125
0.1365,-1.86181640625,19.59912109375,-17.59716796875
0.137,-5.42529296875,21.16064453125,-15.83544921875
0.1375,-8.66845703125,22.08154296875,-13.71337890625
0.138,-11.91162109375,21.80126953125,-10.51025390625
0.1385,-15.11474609375,21.12060546875,-6.78662109375
0.139,-18.27783203125,19.71923828125,-2.30224609375
0.1395,-20.76025390625,17.15673828125,2.66259765625
0.14,-21.68115234375,15.03466796875,5.70556640625
0.1405,-22.08154296875,12.23193359375,8.82861328125
0.141,-21.76123046875,8.70849609375,12.19189453125
0.1415,-20.64013671875,3.70361328125,16.03564453125
0.142,-18.95849609375,-0.66064453125,18.79833984375
0.1425,-16.99658203125,-4.70458984375,20.84033203125
0.143,-14.67431640625,-7.90771484375,21.76123046875
0.1435,-11.27099609375,-11.15087890625,21.68115234375
0.144,-7.02685546875,-14.79443359375,21.16064453125
0.1445,-1.74169921875,-18.35791015625,19.67919921875
0.145,3.54345703125,-20.72021484375,17.03662109375
0.1455,6.70654296875,-21.84130859375,15.27490234375
0.146,9.94970703125,-22.44189453125,12.87255859375
0.1465,13.19287109375,-22.12158203125,9.54931640625
0.147,16.79638671875,-21.00048828125,4.98486328125
0.1475,19.75927734375,-19.23876953125,0.42041015625
0.148,21.92138671875,-16.87646484375,-4.14404296875
0.1485,22.44189453125,-14.43408203125,-7.06689453125
0.149,22.56201171875,-11.07080078125,-10.43017578125
0.1495,22.08154296875,-7.14697265625,-14.07373046875
0.15,20.80029296875,-2.34228515625,-17.63720703125
0.1505,18.55810546875,2.42236328125,-20.11962890625
0.151,16.51611328125,6.06591796875,-21.76123046875
0.1515,13.79345703125,9.34912109375,-22.40185546875
0.152,9.90966796875,12.87255859375,-22.08154296875
0.1525,5.02490234375,16.59619140625,-21.12060546875
0.153,-0.30029296875,19.71923828125,-19.35888671875
0.1535,-5.26513671875,21.92138671875,-16.67626953125
0.154,-8.26806640625,22.68212890625,-14.71435546875
0.1545,-11.59130859375,23.04248046875,-11.99169921875
0.155,-15.03466796875,22.40185546875,-8.14794921875
0.1555,-18.51806640625,20.92041015625,-3.38330078125
0.156,-21.12060546875,18.63818359375,1.54150390625
0.1565,-22.92236328125,16.35595703125,5.62548828125
0.157,-23.08251953125,13.51318359375,8.62841796875
0.1575,-23.08251953125,9.86962890625,12.23193359375
0.158,-22.16162109375,5.18505859375,16.03564453125
0.1585,-20.76025390625,0.42041015625,19.43896484375
0.159,-18.19775390625,-4.30419921875,21.56103515625
0.1595,-15.99560546875,-7.62744140625,22.76220703125
0.16,-12.99267578125,-10.95068359375,23.08251953125
0.1605,-8.46826171875,-14.71435546875,22.44189453125
0.161,-3.46337890625,-18.23779296875,20.96044921875
0.1615,2.06201171875,-21.00048828125,18.75830078125
0.162,6.54638671875,-22.84228515625,16.39599609375
0.1625,9.54931640625,-23.16259765625,13.91357421875
0.163,12.95263671875,-23.36279296875,10.99072265625
0.1635,16.67626953125,-22.40185546875,6.54638671875
0.164,19.87939453125,-20.64013671875,1.74169921875
0.1645,22.16162109375,-18.23779296875,-3.18310546875
0.165,23.64306640625,-15.87548828125,-6.74658203125
0.1655,23.60302734375,-12.67236328125,-9.94970703125
0.166,23.20263671875,-8.58837890625,-13.79345703125
0.1665,22.00146484375,-3.90380859375,-17.23681640625
0.167,20.23974609375,1.02099609375,-20.39990234375
0.1675,17.63720703125,5.50537109375,-22.32177734375
0.168,14.99462890625,8.66845703125,-22.92236328125
0.1685,11.87158203125,12.07177734375,-23.32275390625
0.169,6.46630859375,16.23583984375,-22.28173828125
0.1695,1.50146484375,19.47900390625,-20.60009765625
0.17,-3.78369140625,21.84130859375,-18.07763671875
0.1705,-7.74755859375,23.52294921875,-15.99560546875
0.171,-10.87060546875,23.44287109375,-13.11279296875
0.1715,-14.15380859375,23.40283203125,-9.98974609375
0.172,-17.99755859375,22.20166015625,-5.14501953125
0.1725,-21.08056640625,19.99951171875,0.06005859375
0.173,-23.04248046875,17.43701171875,4.54443359375
0.1735,-23.88330078125,14.99462890625,7.86767578125
0.174,-23.88330078125,11.55126953125,11.31103515625
0.1745,-23.20263671875,6.70654296875,15.55517578125
0.175,-21.80126953125,2.22216796875,18.67822265625
0.1755,-19.71923828125,-2.74267578125,21.48095703125
0.176,-17.27685546875,-7.02685546875,23.36279296875
0.1765,-14.15380859375,-10.14990234375,23.36279296875
0.177,-10.87060546875,-13.51318359375,23.56298828125
0.1775,-5.10498046875,-17.75732421875,22.28173828125
0.178,0.46044921875,-20.80029296875,20.07958984375
0.1785,5.10498046875,-22.68212890625,17.51708984375
0.179,8.78857421875,-24.00341796875,15.43505859375
0.1795,12.15185546875,-23.76318359375,12.19189453125
0.18,15.63525390625,-23.24267578125,8.30810546875
0.1805,19.15869140625,-21.92138671875,3.70361328125
0.181,22.08154296875,-19.39892578125,-1.74169921875
0.1815,23.68310546875,-16.91650390625,-5.78564453125
0.182,23.88330078125,-13.99365234375,-8.94873046875
0.1825,23.96337890625,-10.67041015625,-12.31201171875
0.183,22.88232421875,-5.26513671875,-16.71630859375
0.1835,21.20068359375,-0.70068359375,-19.63916015625
0.184,18.79833984375,3.82373046875,-21.76123046875
0.1845,16.39599609375,7.78759765625,-23.52294921875
0.185,12.79248046875,11.07080078125,-23.20263671875
0.1855,9.02880859375,14.67431640625,-23.04248046875
0.186,3.58349609375,18.55810546875,-21.68115234375
0.1865,-2.30224609375,21.52099609375,-19.07861328125
0.187,-6.42626953125,23.04248046875,-16.67626953125
0.1875,-9.74951171875,23.84326171875,-14.43408203125
0.188,-13.11279296875,23.76318359375,-11.27099609375
0.1885,-16.91650390625,22.60205078125,-6.58642578125
0.189,-19.87939453125,21.08056640625,-2.18212890625
0.1895,-22.40185546875,18.47802734375,2.94287109375
0.19,-23.76318359375,15.99560546875,6.70654296875
0.1905,-23.60302734375,12.67236328125,9.90966796875
0.191,-23.60302734375,9.22900390625,13.39306640625
0.1915,-22.36181640625,3.82373046875,17.59716796875
