wavelength,x,y,z
0.0,-3.4833984375,-15.134765625,18.09765625
0.0005,1.3212890625,-17.8173828125,16.2958984375
0.001,4.6044921875,-19.4189453125,14.7744140625
0.0015,7.046875,-19.619140625,12.7724609375
0.002,9.7294921875,-19.6591796875,10.2900390625
0.0025,13.7333984375,-18.658203125,5.525390625
0.003,16.65625,-17.3369140625,1.4013671875
0.0035,18.6982421875,-15.85546875,-2.2021484375
0.004,20.0595703125,-14.25390625,-5.0048828125
0.0045,19.859375,-11.53125,-7.5673828125
0.005,19.4990234375,-7.767578125,-10.970703125
0.0055,18.6982421875,-3.7236328125,-14.2939453125
0.006,17.45703125,0.48046875,-17.2568359375
0.0065,15.85546875,3.84375,-18.978515625
0.007,13.93359375,6.326171875,-19.5791015625
0.0075,11.2509765625,9.0888671875,-19.779296875
0.008,5.92578125,13.1328125,-18.658203125
0.0085,1.6015625,16.015625,-17.3369140625
0.009,-2.40234375,18.09765625,-15.6953125
0.0095,-5.4453125,19.5390625,-14.333984375
0.01,-7.927734375,19.3388671875,-11.8515625
0.0105,-10.890625,19.05859375,-8.80859375
0.011,-14.6142578125,18.177734375,-4.3642578125
0.0115,-17.45703125,16.49609375,0.1201171875
0.012,-19.0986328125,15.0546875,3.1630859375
0.0125,-19.8994140625,13.2529296875,5.7255859375
0.013,-19.7392578125,10.41015625,8.3681640625
0.0135,-19.0986328125,5.8056640625,12.33203125
0.014,-18.2177734375,2.0419921875,15.294921875
0.0145,-16.9765625,-1.7216796875,17.77734375
0.015,-15.53515625,-4.8046875,19.458984375
0.0155,-12.97265625,-7.20703125,19.37890625
0.016,-10.0498046875,-10.1298828125,19.4189453125
0.0165,-4.6845703125,-14.1337890625,18.2177734375
0.017,0.1201171875,-16.9365234375,16.49609375
0.0175,3.4033203125,-18.578125,15.0546875
0.018,6.1259765625,-19.6591796875,13.61328125
0.0185,8.7685546875,-19.37890625,10.970703125
0.019,12.171875,-18.658203125,7.0068359375
0.0195,15.375,-17.77734375,3.0830078125
0.02,17.9375,-16.1357421875,-1.1611328125
0.0205,19.4189453125,-14.654296875,-4.00390625
0.021,19.5791015625,-12.412109375,-6.4462890625
0.0215,19.4990234375,-9.5693359375,-9.2890625
0.022,18.6982421875,-4.7646484375,-13.3330078125
0.0225,17.5771484375,-0.8408203125,-16.1357421875
0.023,16.255859375,2.482421875,-17.9775390625
0.0235,14.814453125,5.365234375,-19.5390625
0.024,11.8115234375,7.9677734375,-19.21875
0.0245,7.9677734375,11.37109375,-18.7783203125
0.025,3.3232421875,14.8544921875,-17.857421875
0.0255,-1.4814453125,17.4169921875,-15.8955078125
0.026,-4.32421875,18.7783203125,-14.57421875
0.0265,-6.88671875,19.298828125,-12.8125
0.027,-9.5693359375,19.1787109375,-10.25
0.0275,-13.453125,18.1376953125,-5.4453125
0.028,-16.3759765625,16.9365234375,-1.4814453125
0.0285,-18.4580078125,15.4951171875,2.08203125
0.029,-19.69921875,13.9736328125,4.8046875
0.0295,-19.458984375,11.1708984375,7.3671875
0.03,-19.2587890625,7.7275390625,10.6103515625
0.0305,-18.578125,3.3232421875,14.333984375
0.031,-17.2568359375,-0.80078125,17.13671875
0.0315,-15.775390625,-3.7236328125,18.658203125
0.032,-14.173828125,-6.326171875,19.69921875
0.0325,-11.1708984375,-9.0087890625,19.458984375
0.033,-6.1259765625,-12.97265625,18.41796875
0.0335,-1.7216796875,-16.015625,17.296875
0.034,2.5625,-18.2578125,15.53515625
0.0345,5.365234375,-19.37890625,14.09375
0.035,7.9677734375,-19.37890625,11.69140625
0.0355,10.810546875,-19.1787109375,8.888671875
0.036,14.654296875,-18.09765625,4.1240234375
0.0365,17.537109375,-16.5361328125,-0.3603515625
0.037,19.138671875,-15.1748046875,-3.283203125
0.0375,19.9794921875,-13.3330078125,-5.92578125
0.038,19.5791015625,-10.4501953125,-8.6484375
0.0385,19.0185546875,-6.0458984375,-12.2919921875
0.039,18.2978515625,-2.0419921875,-15.53515625
0.0395,16.8564453125,1.921875,-18.09765625
0.04,15.21484375,4.8046875,-19.37890625
0.0405,12.8525390625,7.447265625,-19.7392578125
0.041,9.689453125,10.41015625,-19.5791015625
0.0415,4.1240234375,14.4541015625,-18.2578125
0.042,-0.5205078125,17.296875,-16.65625
0.0425,-3.8837890625,19.05859375,-15.2548828125
0.043,-6.6865234375,19.9794921875,-13.61328125
0.0435,-9.4892578125,19.5390625,-10.5703125
0.044,-12.8125,18.9384765625,-6.88671875
0.0445,-16.2158203125,17.8974609375,-2.5224609375
0.045,-18.8583984375,15.9755859375,1.921875
0.0455,-19.9794921875,14.4541015625,4.564453125
0.046,-20.33984375,12.171875,7.20703125
0.0465,-19.9794921875,8.9287109375,10.1298828125
0.047,-19.05859375,4.083984375,14.09375
0.0475,-17.9775390625,0.1201171875,17.0166015625
0.048,-16.6162109375,-3.4833984375,19.1787109375
0.0485,-14.814453125,-6.24609375,20.2197265625
0.049,-11.7314453125,-8.96875,19.939453125
0.0495,-7.8876953125,-12.33203125,19.5390625
0.05,-2.5625,-16.0556640625,18.1376953125
0.0505,2.2421875,-18.5380859375,16.0556640625
0.051,5.0849609375,-19.779296875,14.734375
0.0515,7.8076171875,-20.33984375,12.8125
0.052,10.6904296875,-19.8193359375,9.609375
0.0525,14.333984375,-18.73828125,5.0849609375
0.053,17.4169921875,-17.5771484375,0.8408203125
0.0535,19.69921875,-15.775390625,-3.203125
0.054,20.419921875,-13.9736328125,-5.6455078125
0.0545,20.33984375,-11.1708984375,-8.4482421875
0.055,19.859375,-7.52734375,-11.69140625
0.0555,18.9384765625,-2.962890625,-15.2548828125
0.056,17.3369140625,1.2412109375,-17.857421875
0.0565,15.935546875,4.32421875,-19.5390625
0.057,13.9736328125,7.046875,-20.3798828125
0.0575,10.4501953125,9.9296875,-19.8193359375
0.058,5.8056640625,13.6533203125,-18.978515625
0.0585,0.9609375,16.9365234375,-17.697265625
0.059,-3.5634765625,19.138671875,-15.6953125
0.0595,-6.0859375,19.9794921875,-14.173828125
0.06,-8.8486328125,20.1796875,-11.8115234375
0.0605,-11.9716796875,19.5791015625,-8.328125
0.061,-15.5751953125,18.3779296875,-3.7236328125
0.0615,-18.337890625,16.7763671875,0.6806640625
0.062,-20.2197265625,15.1748046875,4.083984375
0.0625,-20.66015625,13.0927734375,6.56640625
0.063,-20.3798828125,9.849609375,9.609375
0.0635,-19.69921875,5.60546875,13.212890625
0.064,-18.8583984375,1.3212890625,16.6162109375
0.0645,-17.13671875,-2.7626953125,19.0185546875
0.065,-15.53515625,-5.525390625,20.1796875
0.0655,-13.29296875,-8.328125,20.7001953125
0.066,-9.2890625,-11.4912109375,20.0595703125
0.0665,-4.1240234375,-15.21484375,18.7783203125
0.067,0.7607421875,-18.177734375,17.13671875
0.0675,4.724609375,-20.1396484375,15.375
0.068,7.20703125,-20.5400390625,13.4931640625
0.0685,10.2099609375,-20.4599609375,10.650390625
0.069,13.693359375,-19.7392578125,6.6064453125
0.0695,17.13671875,-18.4580078125,2.001953125
0.07,19.6591796875,-16.5361328125,-2.3623046875
0.0705,20.98046875,-14.89453125,-5.28515625
0.071,21.1806640625,-12.4521484375,-7.9677734375
0.0715,20.6201171875,-8.6484375,-11.2509765625
0.072,19.6591796875,-4.1640625,-14.814453125
0.0725,18.498046875,0.2001953125,-17.9375
0.073,16.736328125,4.1240234375,-20.1396484375
0.0735,14.57421875,6.6865234375,-20.8203125
0.074,11.8515625,9.7294921875,-20.98046875
0.0745,7.20703125,13.453125,-20.0595703125
0.075,2.08203125,16.8564453125,-18.658203125
0.0755,-2.6025390625,19.2587890625,-16.65625
0.076,-5.9658203125,20.8203125,-15.0947265625
0.0765,-8.6083984375,20.9404296875,-12.8125
0.077,-11.6513671875,20.419921875,-9.4892578125
0.0775,-15.294921875,19.4189453125,-5.0048828125
0.078,-18.498046875,17.857421875,-0.3203125
0.0785,-20.580078125,15.935546875,3.7236328125
0.079,-21.380859375,14.013671875,6.3662109375
0.0795,-21.4208984375,11.0908203125,9.2890625
0.08,-20.6201171875,6.7265625,12.9326171875
0.0805,-19.5390625,2.3623046875,16.2958984375
0.081,-18.017578125,-1.8818359375,18.9384765625
0.0815,-16.416015625,-5.4052734375,20.9404296875
0.082,-14.013671875,-7.8876953125,21.1005859375
0.0825,-10.7705078125,-10.890625,20.8603515625
0.083,-5.6455078125,-14.7744140625,19.8193359375
0.0835,-0.48046875,-17.9775390625,18.0576171875
0.084,3.84375,-19.939453125,15.9755859375
0.0845,6.6865234375,-21.0205078125,14.4541015625
0.085,9.44921875,-21.0205078125,11.8916015625
0.0855,12.732421875,-20.1796875,7.9677734375
0.086,16.1357421875,-19.0986328125,3.5634765625
0.0865,19.138671875,-17.296875,-1.12109375
0.087,21.0205078125,-15.4951171875,-4.724609375
0.0875,21.1806640625,-13.1728515625,-7.1669921875
0.088,21.060546875,-10.169921875,-10.1298828125
0.0885,20.1796875,-5.4853515625,-13.93359375
0.089,19.05859375,-1.28125,-17.0966796875
0.0895,17.296875,2.642578125,-19.21875
0.09,15.7353515625,5.845703125,-20.900390625
0.0905,12.97265625,8.568359375,-20.900390625
0.091,8.96875,11.8515625,-20.33984375
0.0915,4.1240234375,15.4951171875,-19.2587890625
0.092,-1.12109375,18.6181640625,-17.4169921875
0.0925,-4.8447265625,20.33984375,-15.5751953125
0.093,-7.447265625,20.7802734375,-13.8134765625
0.0935,-10.3701171875,20.7802734375,-11.05078125
0.094,-14.1337890625,19.69921875,-6.40625
0.0945,-17.296875,18.4580078125,-2.1220703125
0.095,-19.7392578125,16.65625,2.08203125
0.0955,-21.30078125,15.0146484375,5.365234375
0.096,-21.1806640625,12.251953125,7.927734375
0.0965,-20.900390625,8.6884765625,11.2509765625
0.097,-19.939453125,3.9638671875,15.0546875
0.0975,-18.73828125,-0.48046875,18.2578125
0.098,-16.9365234375,-4.1240234375,20.1796875
0.0985,-15.2548828125,-6.88671875,21.2607421875
0.099,-12.2919921875,-9.8095703125,21.30078125
0.0995,-7.3271484375,-13.61328125,20.2998046875
0.1,-2.5625,-16.896484375,18.978515625
0.1005,2.4423828125,-19.5791015625,16.9765625
0.101,5.92578125,-21.1806640625,15.3349609375
0.1015,8.5283203125,-21.140625,12.892578125
0.102,11.53125,-21.060546875,9.9697265625
0.1025,15.53515625,-19.8193359375,4.96484375
0.103,18.73828125,-18.2177734375,0.3203125
0.1035,20.7802734375,-16.416015625,-3.5634765625
0.104,21.9013671875,-14.5341796875,-6.56640625
0.1045,21.5810546875,-11.4111328125,-9.369140625
0.105,20.98046875,-7.0869140625,-13.1728515625
0.1055,19.9794921875,-2.72265625,-16.5361328125
0.106,18.4580078125,1.841796875,-19.5390625
0.1065,16.5361328125,5.4453125,-21.2607421875
0.107,14.09375,8.16796875,-21.62109375
0.1075,11.05078125,11.2109375,-21.701171875
0.108,5.1650390625,15.53515625,-20.2998046875
0.1085,0.2802734375,18.578125,-18.6181640625
0.109,-4.1240234375,20.66015625,-16.6962890625
0.1095,-7.4072265625,21.94140625,-14.974609375
0.11,-10.2900390625,21.4609375,-11.8515625
0.1105,-13.5732421875,21.0205078125,-8.2080078125
0.111,-17.45703125,19.779296875,-3.283203125
0.1115,-20.5400390625,17.7373046875,1.921875
0.112,-22.1015625,15.775390625,5.28515625
0.1125,-22.662109375,13.4130859375,8.2080078125
0.113,-22.3017578125,10.08984375,11.2109375
0.1135,-21.3408203125,4.8447265625,15.53515625
0.114,-20.0595703125,0.6005859375,18.5380859375
0.1145,-18.337890625,-3.68359375,21.1005859375
0.115,-16.3759765625,-7.1669921875,22.662109375
0.1155,-13.1328125,-9.9697265625,22.26171875
0.116,-9.5693359375,-13.2529296875,22.0615234375
0.1165,-3.4833984375,-17.4970703125,20.419921875
0.117,2.0419921875,-20.5,18.177734375
0.1175,5.765625,-21.9814453125,16.255859375
0.118,8.9287109375,-22.8623046875,14.2138671875
0.1185,12.01171875,-22.1416015625,10.6904296875
0.119,15.7353515625,-21.1005859375,6.0458984375
0.1195,19.1787109375,-19.7392578125,1.4013671875
0.12,21.9013671875,-17.4970703125,-3.5634765625
0.1205,23.0625,-15.4150390625,-6.7265625
0.121,22.982421875,-12.4521484375,-9.6494140625
0.1215,22.5419921875,-8.9287109375,-12.7724609375
0.122,21.2607421875,-3.4033203125,-17.056640625
0.1225,19.5791015625,1.201171875,-19.9794921875
0.123,17.697265625,4.9248046875,-21.861328125
0.1235,15.6552734375,8.2080078125,-23.142578125
0.124,11.69140625,11.291015625,-22.3818359375
0.1245,7.0869140625,15.0546875,-21.6611328125
0.125,1.76171875,18.658203125,-20.1796875
0.1255,-3.8037109375,21.3408203125,-17.6171875
0.126,-6.9267578125,22.3818359375,-15.6953125
0.1265,-9.9296875,22.6220703125,-13.2529296875
0.127,-12.97265625,22.021484375,-9.8095703125
0.1275,-17.13671875,20.5,-4.32421875
0.128,-20.2197265625,18.818359375,0.400390625
0.1285,-22.341796875,16.7763671875,4.484375
0.129,-23.22265625,14.6142578125,7.52734375
0.1295,-22.7021484375,11.05078125,10.650390625
0.13,-22.181640625,7.046875,14.173828125
0.1305,-21.0205078125,1.9619140625,18.0576171875
0.131,-19.0986328125,-2.802734375,20.9404296875
0.1315,-17.13671875,-6.1259765625,22.341796875
0.132,-14.974609375,-9.048828125,23.1826171875
0.1325,-11.0107421875,-12.2119140625,22.421875
0.133,-5.28515625,-16.416015625,21.1005859375
0.1335,-0.2001953125,-19.6591796875,19.4189453125
0.134,4.7646484375,-21.9814453125,17.1767578125
0.1345,7.767578125,-22.7021484375,15.0947265625
0.135,10.890625,-22.4619140625,12.01171875
0.1355,14.1337890625,-21.861328125,8.4482421875
0.136,18.2177734375,-20.33984375,2.9228515625
0.1365,21.1806640625,-18.2177734375,-2.1220703125
0.137,22.7822265625,-16.2958984375,-5.6455078125
0.1375,23.3427734375,-13.853515625,-8.5283203125
0.138,22.6220703125,-10.08984375,-11.69140625
0.1385,21.701171875,-5.28515625,-15.615234375
0.139,20.5,-0.80078125,-18.978515625
0.1395,18.5380859375,3.923828125,-21.6611328125
0.14,16.255859375,7.126953125,-22.662109375
0.1405,13.4130859375,10.169921875,-22.90234375
0.141,9.4091796875,13.4931640625,-22.3818359375
0.1415,3.203125,17.77734375,-20.580078125
0.142,-1.9619140625,20.5400390625,-18.578125
0.1425,-6.005859375,22.421875,-16.6162109375
0.143,-9.048828125,22.9423828125,-14.3740234375
0.1435,-12.33203125,22.3017578125,-10.650390625
0.144,-15.85546875,21.4208984375,-6.4462890625
0.1445,-19.4990234375,19.859375,-1.4013671875
0.145,-22.181640625,17.4970703125,3.68359375
0.1455,-23.1826171875,15.4951171875,6.6865234375
0.146,-23.54296875,12.6123046875,9.849609375
0.1465,-22.7421875,8.48828125,13.212890625
0.147,-21.541015625,3.2431640625,17.3369140625
0.1475,-20.0595703125,-1.28125,20.33984375
0.148,-18.177734375,-5.4052734375,22.6220703125
0.1485,-15.6953125,-8.408203125,23.22265625
0.149,-12.2119140625,-11.6513671875,22.9423828125
0.1495,-7.5673828125,-15.3349609375,22.181640625
0.15,-1.6015625,-19.21875,20.2197265625
0.1505,3.763671875,-21.5810546875,17.697265625
0.151,7.0869140625,-22.822265625,15.85546875
0.1515,10.169921875,-23.1025390625,13.3330078125
0.152,13.453125,-22.181640625,9.369140625
0.1525,17.216796875,-20.98046875,4.5244140625
0.153,20.5,-19.2587890625,-0.4404296875
0.1535,22.90234375,-16.9365234375,-4.96484375
0.154,23.3427734375,-14.6943359375,-7.7275390625
0.1545,23.22265625,-11.37109375,-10.970703125
0.155,22.421875,-7.0068359375,-14.57421875
0.1555,21.1005859375,-1.9619140625,-18.337890625
0.156,19.0986328125,2.6025390625,-20.8603515625
0.1565,17.2568359375,6.24609375,-22.7021484375
0.157,14.5341796875,9.1689453125,-23.0625
0.1575,10.4501953125,12.4521484375,-22.341796875
0.158,5.4052734375,16.2958984375,-21.30078125
0.1585,-0.16015625,19.779296875,-19.458984375
0.159,-4.96484375,21.8212890625,-16.9765625
0.1595,-7.84765625,22.5419921875,-15.0546875
0.16,-10.9306640625,22.58203125,-12.2119140625
0.1605,-14.4140625,21.541015625,-7.9677734375
0.161,-18.017578125,20.1396484375,-3.0830078125
0.1615,-20.900390625,18.2177734375,1.841796875
0.162,-22.822265625,16.17578125,5.60546875
0.1625,-22.982421875,13.5732421875,8.2880859375
0.163,-22.58203125,9.9296875,11.6513671875
0.1635,-21.6611328125,5.205078125,15.4951171875
0.164,-20.4599609375,0.5205078125,19.0185546875
0.1645,-18.3779296875,-3.84375,21.2607421875
0.165,-16.576171875,-6.9267578125,22.501953125
0.1655,-13.8134765625,-9.8896484375,22.7822265625
0.166,-9.2490234375,-13.373046875,21.78125
0.1665,-3.8837890625,-17.0166015625,20.33984375
0.167,1.4013671875,-20.0595703125,18.41796875
0.1675,5.60546875,-21.94140625,16.3359375
0.168,8.2880859375,-22.181640625,14.173828125
0.1685,11.37109375,-21.9814453125,11.130859375
0.169,15.134765625,-21.0205078125,6.56640625
0.1695,18.578125,-19.4990234375,1.76171875
0.17,21.140625,-17.45703125,-2.8427734375
0.1705,22.58203125,-15.6552734375,-6.0859375
0.171,22.6220703125,-12.8525390625,-8.9287109375
0.1715,21.9814453125,-8.80859375,-12.3720703125
0.172,20.900390625,-4.1240234375,-16.015625
0.1725,19.619140625,0.48046875,-19.2587890625
0.173,17.6171875,4.484375,-21.380859375
0.1735,15.455078125,7.3271484375,-22.0615234375
0.174,12.4921875,10.3701171875,-22.26171875
0.1745,7.3671875,14.3740234375,-21.1806640625
0.175,2.2021484375,17.77734375,-19.619140625
0.1755,-2.72265625,20.2197265625,-17.4970703125
0.176,-6.3662109375,21.9013671875,-15.775390625
0.1765,-9.12890625,21.78125,-13.29296875
0.177,-12.2119140625,21.4208984375,-9.8896484375
0.1775,-16.0556640625,20.33984375,-5.1650390625
0.178,-19.37890625,18.6181640625,-0.2802734375
0.1785,-21.5009765625,16.6162109375,3.84375
0.179,-22.3818359375,14.654296875,6.6865234375
0.1795,-22.3818359375,11.53125,9.8095703125
0.18,-21.541015625,6.88671875,13.7333984375
0.1805,-20.419921875,2.40234375,17.0966796875
0.181,-18.8583984375,-2.001953125,19.8994140625
0.1815,-17.0166015625,-5.765625,21.861328125
0.182,-14.4140625,-8.328125,21.94140625
0.1825,-11.2509765625,-11.4111328125,21.861328125
0.183,-5.765625,-15.53515625,20.6201171875
0.1835,-0.4404296875,-18.73828125,18.7783203125
0.184,3.923828125,-20.7001953125,16.65625
0.1845,7.046875,-21.9013671875,15.0146484375
0.185,9.9697265625,-21.7412109375,12.171875
0.1855,13.4130859375,-20.8603515625,8.1279296875
0.186,16.896484375,-19.8193359375,3.6435546875
0.1865,20.01953125,-17.9375,-1.3212890625
0.187,21.8212890625,-16.015625,-5.0048828125
0.1875,22.0615234375,-13.61328125,-7.607421875
0.188,21.9013671875,-10.4501953125,-10.6103515625
0.1885,20.900390625,-5.4853515625,-14.654296875
0.189,19.69921875,-1.2412109375,-17.8173828125
0.1895,17.857421875,2.802734375,-19.939453125
0.19,16.17578125,6.2060546875,-21.6611328125
0.1905,13.0927734375,8.96875,-21.4208984375
0.191,9.12890625,12.2919921875,-20.8603515625
0.1915,4.1240234375,15.9755859375,-19.7392578125
0.192,-1.2412109375,19.0185546875,-17.697265625
0.1925,-4.884765625,20.580078125,-15.8154296875
0.193,-7.52734375,21.1005859375,-13.9736328125
0.1935,-10.4501953125,21.060546875,-11.1708984375
0.194,-14.2138671875,19.859375,-6.40625
0.1945,-17.3369140625,18.6181640625,-2.2421875
0.195,-19.859375,16.81640625,2.0419921875
0.1955,-21.3408203125,15.0546875,5.28515625
0.196,-21.1806640625,12.33203125,7.84765625
0.1965,-20.9404296875,8.9287109375,11.05078125
0.197,-19.8994140625,4.1640625,14.8544921875
0.1975,-18.73828125,-0.2001953125,17.9375
0.198,-16.9765625,-3.6435546875,19.7392578125
0.1985,-15.3349609375,-6.3662109375,20.900390625
0.199,-12.3720703125,-9.2490234375,20.8203125
0.1995,-7.5673828125,-12.97265625,19.859375
0.2,-2.962890625,-16.1357421875,18.578125
0.2005,1.8818359375,-18.7783203125,16.65625
0.201,5.2451171875,-20.2998046875,15.0947265625
0.2015,7.6474609375,-20.33984375,12.892578125
0.202,10.4501953125,-20.2197265625,10.25
0.2025,14.4140625,-19.1787109375,5.365234375
0.203,17.4169921875,-17.77734375,1.0810546875
0.2035,19.4990234375,-16.1357421875,-2.6025390625
0.204,20.66015625,-14.494140625,-5.4052734375
0.2045,20.4599609375,-11.5712890625,-8.087890625
0.205,19.8994140625,-7.5673828125,-11.7314453125
0.2055,19.138671875,-3.4833984375,-15.0546875
0.206,17.857421875,0.8408203125,-17.9375
0.2065,16.17578125,4.1640625,-19.69921875
0.207,14.09375,6.6865234375,-20.099609375
0.2075,11.37109375,9.529296875,-20.2998046875
0.208,5.8056640625,13.693359375,-19.0986328125
0.2085,1.28125,16.65625,-17.6572265625
0.209,-2.72265625,18.73828125,-16.015625
0.2095,-5.8056640625,20.1396484375,-14.57421875
0.21,-8.3681640625,19.859375,-11.8916015625
0.2105,-11.53125,19.458984375,-8.6083984375
0.211,-15.1748046875,18.5380859375,-4.1640625
0.2115,-18.09765625,16.81640625,0.3603515625
0.212,-19.7392578125,15.294921875,3.4833984375
0.2125,-20.3798828125,13.373046875,6.0458984375
0.213,-20.2197265625,10.41015625,8.80859375
0.2135,-19.5390625,5.5654296875,13.0126953125
0.214,-18.5380859375,1.7216796875,15.9755859375
0.2145,-17.2568359375,-2.08203125,18.41796875
0.215,-15.7353515625,-5.205078125,20.1396484375
0.2155,-13.0126953125,-7.7275390625,19.939453125
0.216,-9.9296875,-10.73046875,19.859375
0.2165,-4.5244140625,-14.734375,18.6982421875
0.217,0.48046875,-17.6171875,16.8564453125
0.2175,3.7236328125,-19.21875,15.375
0.218,6.5263671875,-20.1796875,13.7734375
