wavelength,x,y,z
0.0,9.599365234375,-4.254150390625,-5.295166015625
0.0005,8.998779296875,-2.292236328125,-6.496337890625
0.001,8.197998046875,-0.610595703125,-7.617431640625
0.0015,7.036865234375,1.511474609375,-8.538330078125
0.002,5.755615234375,3.713623046875,-9.339111328125
0.0025,4.314208984375,5.155029296875,-9.419189453125
0.003,2.512451171875,6.596435546875,-9.018798828125
0.0035,0.790771484375,7.677490234375,-8.338134765625
0.004,-1.010986328125,8.678466796875,-7.737548828125
0.0045,-3.133056640625,9.479248046875,-6.456298828125
0.005,-4.654541015625,9.959716796875,-5.455322265625
0.0055,-5.815673828125,9.759521484375,-4.134033203125
0.006,-6.896728515625,9.078857421875,-2.452392578125
0.0065,-7.817626953125,8.318115234375,-0.770751953125
0.007,-8.658447265625,7.197021484375,1.231201171875
0.0075,-9.339111328125,5.835693359375,3.233154296875
0.008,-9.539306640625,4.834716796875,4.514404296875
0.0085,-9.339111328125,3.113037109375,5.955810546875
0.009,-8.498291015625,1.231201171875,7.076904296875
0.0095,-7.737548828125,-0.690673828125,8.197998046875
0.01,-6.296142578125,-2.892822265625,8.998779296875
0.0105,-5.054931640625,-4.814697265625,9.639404296875
0.011,-3.293212890625,-6.216064453125,9.279052734375
0.0115,-1.571533203125,-7.497314453125,8.838623046875
0.012,0.190185546875,-8.458251953125,8.157958984375
0.0125,1.991943359375,-9.419189453125,7.317138671875
0.013,4.073974609375,-10.179931640625,6.075927734375
0.0135,5.395263671875,-10.340087890625,4.994873046875
0.014,6.556396484375,-9.939697265625,3.553466796875
0.0145,7.477294921875,-9.178955078125,1.871826171875
0.015,8.398193359375,-8.298095703125,0.070068359375
0.0155,9.078857421875,-7.016845703125,-1.971923828125
0.016,9.719482421875,-5.895751953125,-3.733642578125
0.0165,9.679443359375,-4.734619140625,-4.934814453125
0.017,9.319091796875,-2.972900390625,-6.376220703125
0.0175,8.398193359375,-1.131103515625,-7.377197265625
0.018,7.597412109375,0.950927734375,-8.418212890625
0.0185,6.115966796875,3.193115234375,-9.218994140625
0.019,4.834716796875,4.874755859375,-9.619384765625
0.0195,3.032958984375,6.276123046875,-9.218994140625
0.02,1.311279296875,7.437255859375,-8.658447265625
0.0205,-0.450439453125,8.398193359375,-7.977783203125
0.021,-2.412353515625,9.279052734375,-6.896728515625
0.0215,-4.334228515625,9.999755859375,-5.815673828125
0.022,-5.455322265625,9.799560546875,-4.574462890625
0.0225,-6.696533203125,9.439208984375,-3.012939453125
0.023,-7.497314453125,8.518310546875,-1.291259765625
0.0235,-8.458251953125,7.677490234375,0.550537109375
0.024,-9.098876953125,6.236083984375,2.592529296875
0.0245,-9.619384765625,5.195068359375,4.154052734375
0.025,-9.379150390625,3.833740234375,5.355224609375
0.0255,-8.818603515625,1.911865234375,6.716552734375
0.026,-7.977783203125,0.110107421875,7.717529296875
0.0265,-6.936767578125,-1.931884765625,8.638427734375
0.027,-5.455322265625,-4.134033203125,9.399169921875
0.0275,-3.973876953125,-5.615478515625,9.319091796875
0.028,-2.212158203125,-6.896728515625,8.918701171875
0.0285,-0.570556640625,-7.937744140625,8.318115234375
0.029,1.191162109375,-8.898681640625,7.637451171875
0.0295,3.153076171875,-9.619384765625,6.476318359375
0.03,4.714599609375,-10.179931640625,5.475341796875
0.0305,5.715576171875,-9.859619140625,4.234130859375
0.031,6.876708984375,-9.379150390625,2.672607421875
0.0315,7.637451171875,-8.458251953125,0.990966796875
0.032,8.478271484375,-7.537353515625,-0.810791015625
0.0325,9.118896484375,-6.296142578125,-2.692626953125
0.033,9.479248046875,-5.415283203125,-3.973876953125
0.0335,9.198974609375,-3.973876953125,-5.255126953125
0.034,8.518310546875,-2.092041015625,-6.376220703125
0.0345,7.757568359375,-0.330322265625,-7.417236328125
0.035,6.676513671875,1.671630859375,-8.298095703125
0.0355,5.555419921875,3.553466796875,-9.018798828125
0.036,4.154052734375,4.794677734375,-8.818603515625
0.0365,2.432373046875,6.115966796875,-8.498291015625
0.037,0.910888671875,7.076904296875,-7.977783203125
0.0375,-0.770751953125,8.117919921875,-7.377197265625
0.038,-2.572509765625,8.918701171875,-6.376220703125
0.0385,-3.853759765625,9.279052734375,-5.575439453125
0.039,-4.854736328125,8.958740234375,-4.294189453125
0.0395,-5.935791015625,8.478271484375,-2.812744140625
0.04,-6.896728515625,7.757568359375,-1.211181640625
0.0405,-7.697509765625,6.876708984375,0.590576171875
0.041,-8.458251953125,6.075927734375,2.192138671875
0.0415,-8.698486328125,5.155029296875,3.273193359375
0.042,-8.498291015625,3.713623046875,4.634521484375
0.0425,-7.937744140625,1.951904296875,5.795654296875
0.043,-7.337158203125,0.190185546875,7.036865234375
0.0435,-6.376220703125,-1.651611328125,7.797607421875
0.044,-5.455322265625,-3.173095703125,8.478271484375
0.0445,-4.013916015625,-4.454345703125,8.278076171875
0.045,-2.532470703125,-5.735595703125,8.037841796875
0.0455,-1.091064453125,-6.776611328125,7.717529296875
0.046,0.590576171875,-7.817626953125,7.156982421875
0.0465,2.072021484375,-8.698486328125,6.556396484375
0.047,3.113037109375,-9.018798828125,5.875732421875
0.0475,4.274169921875,-8.818603515625,4.634521484375
0.048,5.355224609375,-8.458251953125,3.193115234375
0.0485,6.516357421875,-7.977783203125,1.591552734375
0.049,7.357177734375,-7.257080078125,0.070068359375
0.0495,8.238037109375,-6.816650390625,-1.371337890625
0.05,8.478271484375,-5.815673828125,-2.532470703125
0.0505,8.318115234375,-4.334228515625,-3.973876953125
0.051,7.917724609375,-2.732666015625,-5.135009765625
0.0515,7.437255859375,-0.970947265625,-6.416259765625
0.052,6.716552734375,0.750732421875,-7.417236328125
0.0525,5.955810546875,2.192138671875,-8.057861328125
0.053,4.514404296875,3.553466796875,-7.977783203125
0.0535,3.072998046875,4.874755859375,-7.897705078125
0.054,1.591552734375,6.196044921875,-7.697509765625
0.0545,0.030029296875,7.237060546875,-7.257080078125
0.055,-1.411376953125,8.197998046875,-6.816650390625
0.0555,-2.532470703125,8.398193359375,-6.015869140625
0.056,-3.853759765625,8.318115234375,-4.654541015625
0.0565,-5.054931640625,7.997802734375,-3.173095703125
0.057,-6.296142578125,7.517333984375,-1.571533203125
0.0575,-7.217041015625,6.916748046875,0.030029296875
0.058,-8.057861328125,6.436279296875,1.391357421875
0.0585,-8.218017578125,5.275146484375,2.712646484375
0.059,-8.017822265625,3.713623046875,4.154052734375
0.0595,-7.697509765625,1.951904296875,5.595458984375
0.06,-7.056884765625,0.190185546875,6.716552734375
0.0605,-6.376220703125,-1.571533203125,7.717529296875
0.061,-5.255126953125,-2.972900390625,7.997802734375
0.0615,-3.773681640625,-4.494384765625,7.997802734375
0.062,-2.332275390625,-5.735595703125,7.877685546875
0.0625,-0.690673828125,-7.056884765625,7.597412109375
0.063,0.950927734375,-8.057861328125,7.076904296875
0.0635,2.312255859375,-8.818603515625,6.436279296875
0.064,3.473388671875,-8.858642578125,5.395263671875
0.0645,4.794677734375,-8.658447265625,3.913818359375
0.065,5.955810546875,-8.258056640625,2.392333984375
0.0655,7.076904296875,-7.657470703125,0.630615234375
0.066,8.037841796875,-6.976806640625,-0.970947265625
0.0665,8.598388671875,-6.256103515625,-2.252197265625
0.067,8.558349609375,-4.774658203125,-3.773681640625
0.0675,8.197998046875,-3.093017578125,-5.094970703125
0.068,7.717529296875,-1.251220703125,-6.416259765625
0.0685,6.876708984375,0.670654296875,-7.497314453125
0.069,5.995849609375,2.432373046875,-8.338134765625
0.0695,4.554443359375,3.833740234375,-8.298095703125
0.07,2.952880859375,5.355224609375,-8.177978515625
0.0705,1.431396484375,6.516357421875,-7.897705078125
0.071,-0.370361328125,7.717529296875,-7.337158203125
0.0715,-2.212158203125,8.678466796875,-6.576416015625
0.072,-3.533447265625,8.998779296875,-5.615478515625
0.0725,-4.774658203125,8.798583984375,-4.214111328125
0.073,-5.935791015625,8.318115234375,-2.612548828125
0.0735,-7.056884765625,7.677490234375,-0.930908203125
0.074,-7.977783203125,6.716552734375,1.031005859375
0.0745,-8.778564453125,5.835693359375,2.712646484375
0.075,-8.818603515625,4.674560546875,3.913818359375
0.0755,-8.578369140625,2.912841796875,5.475341796875
0.076,-7.937744140625,1.111083984375,6.636474609375
0.0765,-7.177001953125,-0.850830078125,7.837646484375
0.077,-5.895751953125,-3.012939453125,8.678466796875
0.0775,-4.494384765625,-4.694580078125,8.958740234375
0.078,-2.732666015625,-6.055908203125,8.598388671875
0.0785,-1.171142578125,-7.297119140625,8.278076171875
0.079,0.590576171875,-8.338134765625,7.637451171875
0.0795,2.512451171875,-9.259033203125,6.716552734375
0.08,4.354248046875,-9.979736328125,5.715576171875
0.0805,5.435302734375,-9.739501953125,4.354248046875
0.081,6.716552734375,-9.419189453125,2.752685546875
0.0815,7.557373046875,-8.578369140625,1.071044921875
0.082,8.478271484375,-7.617431640625,-0.770751953125
0.0825,9.239013671875,-6.336181640625,-2.812744140625
0.083,9.639404296875,-5.175048828125,-4.414306640625
0.0835,9.279052734375,-3.653564453125,-5.615478515625
0.084,8.758544921875,-1.811767578125,-6.936767578125
0.0845,7.837646484375,0.070068359375,-7.817626953125
0.085,6.716552734375,2.152099609375,-8.818603515625
0.0855,5.275146484375,4.434326171875,-9.619384765625
0.086,3.553466796875,5.835693359375,-9.339111328125
0.0865,1.751708984375,7.197021484375,-8.858642578125
0.087,0.110107421875,8.197998046875,-8.258056640625
0.0875,-1.811767578125,9.118896484375,-7.377197265625
0.088,-3.853759765625,9.919677734375,-6.135986328125
0.0885,-5.575439453125,10.320068359375,-4.894775390625
0.089,-6.576416015625,9.479248046875,-3.173095703125
0.0895,-7.737548828125,8.998779296875,-1.571533203125
0.09,-8.458251953125,7.877685546875,0.310302734375
0.0905,-9.218994140625,6.716552734375,2.232177734375
0.091,-9.859619140625,5.315185546875,4.354248046875
0.0915,-9.739501953125,3.873779296875,5.715576171875
0.092,-9.138916015625,2.072021484375,6.916748046875
0.0925,-8.338134765625,0.190185546875,8.037841796875
0.093,-7.257080078125,-1.771728515625,8.838623046875
0.0935,-5.895751953125,-3.973876953125,9.599365234375
0.094,-4.174072265625,-6.095947265625,10.039794921875
0.0945,-2.212158203125,-7.257080078125,9.239013671875
0.095,-0.490478515625,-8.498291015625,8.798583984375
0.0955,1.271240234375,-9.259033203125,7.877685546875
0.096,3.153076171875,-9.979736328125,6.796630859375
0.0965,5.155029296875,-10.780517578125,5.595458984375
0.097,6.476318359375,-10.660400390625,4.154052734375
0.0975,7.477294921875,-9.779541015625,2.432373046875
0.098,8.438232421875,-9.018798828125,0.790771484375
0.0985,8.998779296875,-7.817626953125,-1.091064453125
0.099,9.639404296875,-6.576416015625,-2.932861328125
0.0995,10.159912109375,-5.175048828125,-4.894775390625
0.1,9.639404296875,-3.573486328125,-6.015869140625
0.1005,9.118896484375,-1.851806640625,-7.217041015625
0.101,8.077880859375,0.030029296875,-8.017822265625
0.1015,7.076904296875,1.951904296875,-8.898681640625
0.102,5.635498046875,4.033935546875,-9.619384765625
0.1025,4.033935546875,5.795654296875,-9.739501953125
0.103,2.072021484375,6.916748046875,-8.898681640625
0.1035,0.510498046875,8.037841796875,-8.458251953125
0.104,-1.251220703125,8.758544921875,-7.537353515625
0.1045,-3.052978515625,9.559326171875,-6.576416015625
0.105,-4.854736328125,10.119873046875,-5.415283203125
0.1055,-5.935791015625,9.599365234375,-3.933837890625
0.106,-6.976806640625,9.038818359375,-2.332275390625
0.1065,-7.817626953125,8.197998046875,-0.690673828125
0.107,-8.538330078125,7.156982421875,1.111083984375
0.1075,-9.098876953125,5.995849609375,2.912841796875
0.108,-9.539306640625,4.794677734375,4.514404296875
0.1085,-8.938720703125,3.193115234375,5.515380859375
0.109,-8.498291015625,1.471435546875,6.876708984375
0.1095,-7.497314453125,-0.330322265625,7.677490234375
0.11,-6.656494140625,-2.172119140625,8.558349609375
0.1105,-5.255126953125,-4.134033203125,9.158935546875
0.111,-3.653564453125,-5.535400390625,8.998779296875
0.1115,-1.931884765625,-6.696533203125,8.438232421875
0.112,-0.490478515625,-7.697509765625,8.037841796875
0.1125,1.191162109375,-8.538330078125,7.277099609375
0.113,2.792724609375,-9.339111328125,6.436279296875
0.1135,4.354248046875,-9.899658203125,5.435302734375
0.114,5.275146484375,-9.339111328125,4.033935546875
0.1145,6.436279296875,-8.938720703125,2.632568359375
0.115,7.156982421875,-8.057861328125,1.071044921875
0.1155,8.077880859375,-7.297119140625,-0.650634765625
0.116,8.718505859375,-6.376220703125,-2.252197265625
0.1165,8.998779296875,-5.375244140625,-3.573486328125
0.117,8.678466796875,-3.933837890625,-4.694580078125
0.1175,8.238037109375,-2.252197265625,-6.015869140625
0.118,7.517333984375,-0.610595703125,-6.896728515625
0.1185,6.716552734375,1.271240234375,-7.937744140625
0.119,5.635498046875,3.072998046875,-8.618408203125
0.1195,4.154052734375,4.274169921875,-8.338134765625
0.12,2.632568359375,5.635498046875,-8.177978515625
0.1205,1.191162109375,6.676513671875,-7.817626953125
0.121,-0.450439453125,7.637451171875,-7.297119140625
0.1215,-2.052001953125,8.518310546875,-6.576416015625
0.122,-3.333251953125,8.838623046875,-5.695556640625
0.1225,-4.334228515625,8.518310546875,-4.334228515625
0.123,-5.615478515625,8.318115234375,-2.892822265625
0.1235,-6.536376953125,7.597412109375,-1.331298828125
0.124,-7.537353515625,6.916748046875,0.390380859375
0.1245,-8.298095703125,6.156005859375,1.951904296875
0.125,-8.458251953125,5.114990234375,3.113037109375
0.1255,-8.298095703125,3.593505859375,4.514404296875
0.126,-7.777587890625,1.911865234375,5.755615234375
0.1265,-7.217041015625,0.150146484375,6.916748046875
0.127,-6.376220703125,-1.651611328125,7.837646484375
0.1275,-5.215087890625,-3.333251953125,8.318115234375
0.128,-3.773681640625,-4.534423828125,8.037841796875
0.1285,-2.252197265625,-5.975830078125,8.037841796875
0.129,-0.810791015625,-7.056884765625,7.637451171875
0.1295,0.830810546875,-8.177978515625,7.116943359375
0.13,2.432373046875,-8.978759765625,6.436279296875
0.1305,3.593505859375,-9.018798828125,5.475341796875
0.131,4.794677734375,-8.818603515625,4.114013671875
0.1315,5.915771484375,-8.378173828125,2.592529296875
0.132,6.996826171875,-7.777587890625,0.990966796875
0.1325,7.917724609375,-7.096923828125,-0.690673828125
0.133,8.638427734375,-6.296142578125,-2.252197265625
0.1335,8.598388671875,-5.094970703125,-3.453369140625
0.134,8.438232421875,-3.453369140625,-4.934814453125
0.1345,7.797607421875,-1.731689453125,-6.095947265625
0.135,7.237060546875,0.150146484375,-7.337158203125
0.1355,6.316162109375,1.991943359375,-8.258056640625
0.136,4.994873046875,3.553466796875,-8.458251953125
0.1365,3.353271484375,4.914794921875,-8.177978515625
0.137,1.871826171875,6.236083984375,-8.057861328125
0.1375,0.270263671875,7.277099609375,-7.577392578125
0.138,-1.491455078125,8.318115234375,-6.976806640625
0.1385,-3.173095703125,9.118896484375,-6.095947265625
0.139,-4.334228515625,8.838623046875,-4.694580078125
0.1395,-5.695556640625,8.678466796875,-3.173095703125
0.14,-6.656494140625,7.957763671875,-1.571533203125
0.1405,-7.697509765625,7.197021484375,0.270263671875
0.141,-8.578369140625,6.276123046875,2.072021484375
0.1415,-8.978759765625,5.114990234375,3.593505859375
0.142,-8.618408203125,3.593505859375,4.874755859375
0.1425,-8.298095703125,1.791748046875,6.396240234375
0.143,-7.417236328125,-0.130126953125,7.357177734375
0.1435,-6.576416015625,-1.971923828125,8.398193359375
0.144,-5.135009765625,-4.093994140625,9.038818359375
0.1445,-3.453369140625,-5.535400390625,8.798583984375
0.145,-1.771728515625,-6.936767578125,8.478271484375
0.1455,-0.170166015625,-8.017822265625,7.997802734375
0.146,1.711669921875,-8.938720703125,7.116943359375
0.1465,3.513427734375,-9.779541015625,6.276123046875
0.147,5.114990234375,-10.099853515625,5.034912109375
0.1475,6.196044921875,-9.459228515625,3.353271484375
0.148,7.437255859375,-9.018798828125,1.751708984375
0.1485,8.197998046875,-7.977783203125,-0.170166015625
0.149,8.998779296875,-6.976806640625,-1.971923828125
0.1495,9.719482421875,-5.735595703125,-3.893798828125
0.15,9.559326171875,-4.174072265625,-5.335205078125
0.1505,8.998779296875,-2.412353515625,-6.576416015625
0.151,8.318115234375,-0.570556640625,-7.697509765625
0.1515,7.156982421875,1.511474609375,-8.578369140625
0.152,5.955810546875,3.513427734375,-9.419189453125
0.1525,4.354248046875,5.555419921875,-9.779541015625
0.153,2.312255859375,6.716552734375,-8.978759765625
0.1535,0.630615234375,8.037841796875,-8.658447265625
0.154,-1.291259765625,8.918701171875,-7.697509765625
0.1545,-3.253173828125,9.719482421875,-6.536376953125
0.155,-5.135009765625,10.400146484375,-5.415283203125
0.1555,-6.456298828125,10.119873046875,-3.853759765625
0.156,-7.457275390625,9.239013671875,-2.052001953125
0.1565,-8.458251953125,8.478271484375,-0.330322265625
0.157,-9.098876953125,7.076904296875,1.791748046875
0.1575,-9.699462890625,5.915771484375,3.553466796875
0.158,-10.139892578125,4.514404296875,5.435302734375
0.1585,-9.459228515625,2.592529296875,6.676513671875
0.159,-8.778564453125,0.750732421875,7.877685546875
0.1595,-7.657470703125,-1.251220703125,8.678466796875
0.16,-6.336181640625,-3.373291015625,9.479248046875
0.1605,-4.854736328125,-5.335205078125,9.959716796875
0.161,-2.972900390625,-7.056884765625,9.799560546875
0.1615,-1.010986328125,-8.057861328125,8.878662109375
0.162,0.670654296875,-9.218994140625,8.358154296875
0.1625,2.672607421875,-9.819580078125,7.076904296875
0.163,4.434326171875,-10.460205078125,5.995849609375
0.1635,6.115966796875,-10.820556640625,4.794677734375
0.164,7.076904296875,-10.059814453125,3.113037109375
0.1645,8.037841796875,-9.299072265625,1.431396484375
0.165,8.758544921875,-8.258056640625,-0.370361328125
0.1655,9.279052734375,-6.896728515625,-2.252197265625
0.166,9.799560546875,-5.815673828125,-3.853759765625
0.1665,9.959716796875,-4.414306640625,-5.575439453125
0.167,9.118896484375,-2.532470703125,-6.536376953125
0.1675,8.558349609375,-0.810791015625,-7.697509765625
0.168,7.317138671875,1.151123046875,-8.338134765625
0.1685,6.236083984375,2.952880859375,-9.098876953125
0.169,4.874755859375,4.754638671875,-9.619384765625
0.1695,3.072998046875,6.156005859375,-9.178955078125
0.17,1.311279296875,7.197021484375,-8.498291015625
0.1705,-0.290283203125,8.238037109375,-7.937744140625
0.171,-2.092041015625,8.958740234375,-6.856689453125
0.1715,-3.613525390625,9.559326171875,-6.055908203125
0.172,-5.135009765625,9.799560546875,-4.854736328125
0.1725,-6.015869140625,8.998779296875,-3.213134765625
0.173,-7.136962890625,8.518310546875,-1.691650390625
0.1735,-7.737548828125,7.477294921875,0.030029296875
0.174,-8.498291015625,6.556396484375,1.671630859375
0.1745,-9.058837890625,5.595458984375,3.233154296875
0.175,-9.018798828125,4.154052734375,4.634521484375
0.1755,-8.458251953125,2.592529296875,5.715576171875
0.176,-7.937744140625,0.790771484375,6.956787109375
0.1765,-6.936767578125,-0.970947265625,7.717529296875
0.177,-6.135986328125,-2.652587890625,8.518310546875
0.1775,-4.734619140625,-4.414306640625,8.838623046875
0.178,-3.052978515625,-5.615478515625,8.358154296875
0.1785,-1.571533203125,-6.776611328125,8.117919921875
0.179,0.030029296875,-7.697509765625,7.557373046875
0.1795,1.551513671875,-8.578369140625,6.916748046875
0.18,2.992919921875,-9.259033203125,6.236083984375
0.1805,4.314208984375,-9.339111328125,5.114990234375
0.181,5.275146484375,-8.858642578125,3.713623046875
0.1815,6.436279296875,-8.458251953125,2.152099609375
0.182,7.197021484375,-7.657470703125,0.630615234375
0.1825,8.157958984375,-7.056884765625,-0.970947265625
0.183,8.678466796875,-6.135986328125,-2.452392578125
0.1835,8.598388671875,-4.854736328125,-3.693603515625
0.184,8.358154296875,-3.373291015625,-4.974853515625
0.1845,7.797607421875,-1.651611328125,-6.095947265625
0.185,7.116943359375,0.030029296875,-7.177001953125
0.1855,6.436279296875,1.671630859375,-8.057861328125
0.186,5.114990234375,3.273193359375,-8.378173828125
0.1865,3.593505859375,4.554443359375,-8.017822265625
0.187,2.112060546875,5.955810546875,-7.977783203125
0.1875,0.630615234375,6.916748046875,-7.497314453125
0.188,-0.970947265625,7.997802734375,-7.056884765625
