wavelength,x,y,z
0.0,27.196533203125,-9.439208984375,-17.887451171875
0.0005,25.915283203125,-5.395263671875,-20.570068359375
0.001,23.793212890625,0.250244140625,-24.013427734375
0.0015,21.190673828125,4.934814453125,-25.975341796875
0.002,18.067626953125,10.099853515625,-28.017333984375
0.0025,12.302001953125,15.465087890625,-27.697021484375
0.003,7.177001953125,19.268798828125,-26.295654296875
0.0035,3.253173828125,22.071533203125,-25.294677734375
0.004,-3.032958984375,24.874267578125,-21.931396484375
0.0045,-7.477294921875,26.916259765625,-19.689208984375
0.005,-12.642333984375,26.836181640625,-14.604248046875
0.0055,-17.406982421875,26.996337890625,-10.079833984375
0.006,-20.369873046875,25.394775390625,-5.635498046875
0.0065,-23.572998046875,23.793212890625,-0.830810546875
0.007,-25.655029296875,20.870361328125,4.174072265625
0.0075,-27.737060546875,17.987548828125,9.098876953125
0.008,-26.575927734375,12.261962890625,13.663330078125
0.0085,-26.295654296875,7.777587890625,17.827392578125
0.009,-25.174560546875,4.053955078125,20.349853515625
0.0095,-22.772216796875,-1.671630859375,23.593017578125
0.01,-20.570068359375,-6.115966796875,25.755126953125
0.0105,-16.406005859375,-11.481201171875,26.876220703125
0.011,-11.521240234375,-16.005615234375,26.595947265625
0.0115,-6.676513671875,-19.489013671875,25.274658203125
0.012,-2.352294921875,-22.051513671875,23.633056640625
0.0125,3.333251953125,-24.694091796875,20.750244140625
0.013,8.057861328125,-26.936279296875,18.347900390625
0.0135,13.423095703125,-26.215576171875,12.462158203125
0.014,17.346923828125,-26.455810546875,8.818603515625
0.0145,20.429931640625,-25.014404296875,4.454345703125
0.015,23.472900390625,-23.172607421875,-0.510498046875
0.0155,25.474853515625,-20.409912109375,-5.235107421875
0.016,27.036376953125,-16.726318359375,-10.400146484375
0.0165,25.995361328125,-11.281005859375,-14.804443359375
0.017,25.594970703125,-7.076904296875,-18.528076171875
0.0175,24.193603515625,-3.353271484375,-20.890380859375
0.018,22.031494140625,2.172119140625,-24.093505859375
0.0185,19.428955078125,7.056884765625,-26.415771484375
0.019,14.143798828125,12.662353515625,-26.615966796875
0.0195,9.979736328125,16.706298828125,-26.575927734375
0.02,5.094970703125,20.029541015625,-25.134521484375
0.0205,0.330322265625,22.552001953125,-22.932373046875
0.021,-4.794677734375,24.994384765625,-20.369873046875
0.0215,-10.239990234375,27.076416015625,-17.126708984375
0.022,-15.164794921875,25.795166015625,-11.040771484375
0.0225,-18.568115234375,25.915283203125,-7.837646484375
0.023,-21.651123046875,24.153564453125,-3.072998046875
0.0235,-24.694091796875,22.151611328125,1.931884765625
0.024,-26.455810546875,18.988525390625,6.896728515625
0.0245,-27.376708984375,14.384033203125,12.342041015625
0.025,-26.415771484375,9.499267578125,16.265869140625
0.0255,-25.735107421875,5.094970703125,19.869384765625
0.026,-23.693115234375,0.690673828125,22.191650390625
0.0265,-21.811279296875,-4.554443359375,25.354736328125
0.027,-18.327880859375,-10.079833984375,27.516845703125
0.0275,-12.322021484375,-15.405029296875,26.756103515625
0.028,-8.838623046875,-18.728271484375,26.676025390625
0.0285,-3.233154296875,-22.131591796875,24.553955078125
0.029,2.052001953125,-24.734130859375,22.071533203125
0.0295,6.816650390625,-26.656005859375,19.308837890625
0.03,13.062744140625,-28.337646484375,14.864501953125
0.0305,17.306884765625,-26.736083984375,9.098876953125
0.031,20.750244140625,-26.656005859375,5.735595703125
0.0315,23.673095703125,-24.133544921875,0.290283203125
0.032,26.595947265625,-22.091552734375,-4.674560546875
0.0325,27.677001953125,-18.087646484375,-9.719482421875
0.033,27.877197265625,-12.722412109375,-15.244873046875
0.0335,26.836181640625,-8.438232421875,-18.528076171875
0.034,25.594970703125,-3.553466796875,-22.131591796875
0.0345,23.072509765625,1.131103515625,-24.253662109375
0.035,20.950439453125,6.216064453125,-27.016357421875
0.0355,16.345947265625,12.302001953125,-28.457763671875
0.036,10.059814453125,17.186767578125,-27.056396484375
0.0365,6.856689453125,20.189697265625,-26.936279296875
0.037,0.610595703125,23.352783203125,-23.933349609375
0.0375,-4.354248046875,25.755126953125,-21.611083984375
0.038,-8.918701171875,26.996337890625,-18.407958984375
0.0385,-15.244873046875,27.917236328125,-13.122802734375
0.039,-18.568115234375,26.195556640625,-8.197998046875
0.0395,-22.171630859375,25.635009765625,-4.073974609375
0.04,-24.453857421875,22.752197265625,1.131103515625
0.0405,-27.056396484375,20.510009765625,5.895751953125
0.041,-27.496826171875,15.985595703125,10.860595703125
0.0415,-27.056396484375,10.420166015625,15.945556640625
0.042,-26.375732421875,6.896728515625,18.828369140625
0.0425,-24.453857421875,1.371337890625,22.231689453125
0.043,-22.211669921875,-2.992919921875,24.313720703125
0.0435,-19.769287109375,-7.717529296875,26.595947265625
0.044,-14.804443359375,-13.723388671875,27.556884765625
0.0445,-9.158935546875,-17.567138671875,25.835205078125
0.045,-5.835693359375,-20.690185546875,25.635009765625
0.0455,0.250244140625,-23.252685546875,22.311767578125
0.046,4.934814453125,-25.815185546875,20.349853515625
0.0465,9.619384765625,-26.615966796875,16.506103515625
0.047,15.545166015625,-27.096435546875,11.220947265625
0.0475,18.427978515625,-25.895263671875,7.217041015625
0.048,22.111572265625,-24.814208984375,2.492431640625
0.0485,24.153564453125,-22.291748046875,-1.991943359375
0.049,26.635986328125,-19.889404296875,-6.916748046875
0.0495,26.756103515625,-15.004638671875,-11.921630859375
0.05,26.115478515625,-9.719482421875,-16.526123046875
0.0505,25.755126953125,-6.556396484375,-19.368896484375
0.051,23.392822265625,-0.910888671875,-22.451904296875
0.0515,21.510986328125,3.533447265625,-24.934326171875
0.052,18.227783203125,8.498291015625,-26.575927734375
0.0525,13.102783203125,14.544189453125,-27.416748046875
0.053,7.937744140625,17.987548828125,-25.775146484375
0.0535,4.013916015625,21.230712890625,-25.174560546875
0.054,-1.871826171875,23.673095703125,-21.891357421875
0.0545,-6.436279296875,26.235595703125,-20.009521484375
0.055,-11.561279296875,26.315673828125,-15.084716796875
0.0555,-16.726318359375,26.635986328125,-10.320068359375
0.056,-19.609130859375,25.554931640625,-6.436279296875
0.0565,-23.252685546875,23.753173828125,-1.151123046875
0.057,-25.334716796875,21.110595703125,3.653564453125
0.0575,-27.416748046875,18.067626953125,8.658447265625
0.058,-27.016357421875,12.742431640625,13.623291015625
0.0585,-26.255615234375,7.697509765625,17.787353515625
0.059,-25.614990234375,4.214111328125,20.630126953125
0.0595,-22.932373046875,-1.751708984375,23.833251953125
0.06,-20.930419921875,-6.276123046875,26.315673828125
0.0605,-16.285888671875,-11.681396484375,26.956298828125
0.061,-11.521240234375,-16.726318359375,27.316650390625
0.0615,-6.476318359375,-20.009521484375,25.594970703125
0.062,-1.751708984375,-23.052490234375,23.993408203125
0.0625,4.013916015625,-25.454833984375,20.790283203125
0.063,8.938720703125,-27.737060546875,18.307861328125
0.0635,14.263916015625,-26.936279296875,12.302001953125
0.064,18.468017578125,-26.936279296875,8.258056640625
0.0645,21.310791015625,-25.614990234375,4.134033203125
0.065,24.593994140625,-23.412841796875,-1.311279296875
0.0655,26.435791015625,-20.530029296875,-6.115966796875
0.066,27.596923828125,-16.526123046875,-11.281005859375
0.0665,26.916259765625,-11.321044921875,-15.845458984375
0.067,25.875244140625,-6.476318359375,-19.408935546875
0.0675,24.634033203125,-2.832763671875,-21.811279296875
0.068,21.951416015625,2.932861328125,-24.814208984375
0.0685,19.589111328125,7.737548828125,-27.216552734375
0.069,13.783447265625,13.262939453125,-26.856201171875
0.0695,9.659423828125,17.507080078125,-26.976318359375
0.07,4.934814453125,20.469970703125,-25.294677734375
0.0705,-0.190185546875,23.152587890625,-23.052490234375
0.071,-5.155029296875,25.154541015625,-20.169677734375
0.0715,-10.440185546875,27.156494140625,-16.966552734375
0.072,-15.364990234375,26.035400390625,-11.120849609375
0.0725,-18.848388671875,25.715087890625,-7.397216796875
0.073,-21.490966796875,24.273681640625,-3.353271484375
0.0735,-24.453857421875,21.991455078125,1.851806640625
0.074,-26.255615234375,18.988525390625,6.616455078125
0.0745,-26.615966796875,14.183837890625,11.661376953125
0.075,-26.415771484375,9.899658203125,15.865478515625
0.0755,-25.134521484375,5.255126953125,19.148681640625
0.076,-23.653076171875,1.291259765625,21.591064453125
0.0765,-21.330810546875,-3.873779296875,24.353759765625
0.077,-18.528076171875,-9.239013671875,26.836181640625
0.0775,-12.522216796875,-14.243896484375,25.795166015625
0.078,-8.998779296875,-17.967529296875,26.035400390625
0.0785,-4.194091796875,-20.770263671875,24.153564453125
0.079,1.051025390625,-23.653076171875,21.911376953125
0.0795,5.775634765625,-25.494873046875,19.108642578125
0.08,11.701416015625,-27.016357421875,14.864501953125
0.0805,15.945556640625,-26.175537109375,9.939697265625
0.081,19.468994140625,-25.655029296875,5.975830078125
0.0815,21.991455078125,-23.853271484375,1.691650390625
0.082,24.954345703125,-21.811279296875,-3.353271484375
0.0825,26.635986328125,-18.247802734375,-8.638427734375
0.083,26.235595703125,-12.682373046875,-13.683349609375
0.0835,26.275634765625,-9.078857421875,-17.326904296875
0.084,24.714111328125,-4.194091796875,-20.489990234375
0.0845,22.952392578125,0.090087890625,-23.012451171875
0.085,20.469970703125,5.255126953125,-25.614990234375
0.0855,16.466064453125,11.341064453125,-27.616943359375
0.086,10.500244140625,15.945556640625,-26.255615234375
0.0865,7.096923828125,19.348876953125,-26.335693359375
0.087,1.771728515625,21.911376953125,-23.653076171875
0.0875,-3.433349609375,24.874267578125,-21.611083984375
0.088,-8.278076171875,26.275634765625,-18.287841796875
0.0885,-14.484130859375,27.036376953125,-13.002685546875
0.089,-17.767333984375,26.115478515625,-8.918701171875
0.0895,-21.490966796875,25.154541015625,-4.274169921875
0.09,-23.733154296875,22.712158203125,0.410400390625
0.0905,-26.415771484375,20.429931640625,5.295166015625
0.091,-27.576904296875,16.145751953125,10.860595703125
0.0915,-26.615966796875,10.260009765625,15.665283203125
0.092,-26.615966796875,7.177001953125,18.748291015625
0.0925,-24.333740234375,1.651611328125,21.911376953125
0.093,-22.531982421875,-2.872802734375,24.513916015625
0.0935,-19.569091796875,-7.877685546875,26.555908203125
0.094,-14.684326171875,-14.163818359375,27.877197265625
0.0945,-9.198974609375,-17.887451171875,26.155517578125
0.095,-5.435302734375,-21.330810546875,25.835205078125
0.0955,0.330322265625,-23.532958984375,22.471923828125
0.096,5.255126953125,-26.375732421875,20.550048828125
0.0965,10.380126953125,-27.176513671875,16.345947265625
0.097,16.265869140625,-27.336669921875,10.740478515625
0.0975,18.988525390625,-26.615966796875,7.337158203125
0.098,22.792236328125,-25.014404296875,1.971923828125
0.0985,24.754150390625,-22.572021484375,-2.512451171875
0.099,27.036376953125,-19.809326171875,-7.317138671875
0.0995,27.556884765625,-14.764404296875,-12.922607421875
0.1,26.275634765625,-9.158935546875,-17.206787109375
0.1005,26.195556640625,-6.115966796875,-20.129638671875
0.101,23.392822265625,-0.510498046875,-22.852294921875
0.1015,21.711181640625,3.973876953125,-25.534912109375
0.102,17.947509765625,9.018798828125,-26.776123046875
0.1025,12.622314453125,15.144775390625,-27.576904296875
0.103,7.897705078125,18.267822265625,-26.015380859375
0.1035,3.453369140625,21.711181640625,-25.054443359375
0.104,-1.911865234375,23.633056640625,-21.811279296875
0.1045,-6.436279296875,26.155517578125,-19.929443359375
0.105,-11.841552734375,26.435791015625,-14.924560546875
0.1055,-16.806396484375,26.115478515625,-9.759521484375
0.106,-19.489013671875,25.594970703125,-6.636474609375
0.1065,-22.932373046875,23.352783203125,-1.111083984375
0.107,-24.934326171875,21.030517578125,3.293212890625
0.1075,-26.415771484375,17.907470703125,7.897705078125
0.108,-26.776123046875,12.742431640625,13.383056640625
0.1085,-25.534912109375,7.817626953125,16.986572265625
0.109,-25.214599609375,4.414306640625,20.029541015625
0.1095,-22.411865234375,-0.990966796875,22.511962890625
0.11,-20.890380859375,-5.355224609375,25.434814453125
0.1105,-16.365966796875,-10.480224609375,25.915283203125
0.111,-11.401123046875,-15.765380859375,26.235595703125
0.1115,-7.397216796875,-18.728271484375,25.274658203125
0.112,-2.232177734375,-21.931396484375,23.352783203125
0.1125,2.732666015625,-23.933349609375,20.510009765625
0.113,7.377197265625,-26.215576171875,18.307861328125
0.1135,13.022705078125,-26.295654296875,12.862548828125
0.114,17.146728515625,-25.775146484375,8.298095703125
0.1145,20.029541015625,-25.414794921875,5.094970703125
0.115,23.072509765625,-22.932373046875,-0.350341796875
0.1155,25.314697265625,-20.610107421875,-4.834716796875
0.116,25.995361328125,-16.526123046875,-9.639404296875
0.1165,26.395751953125,-11.721435546875,-14.764404296875
0.117,25.194580078125,-7.116943359375,-18.087646484375
0.1175,24.353759765625,-3.273193359375,-21.130615234375
0.118,21.711181640625,1.931884765625,-23.532958984375
0.1185,19.869384765625,6.776611328125,-26.455810546875
0.119,14.223876953125,12.221923828125,-26.295654296875
0.1195,9.659423828125,16.906494140625,-26.415771484375
0.12,5.775634765625,19.789306640625,-25.454833984375
0.1205,0.010009765625,22.912353515625,-22.932373046875
0.121,-4.754638671875,24.834228515625,-20.249755859375
0.1215,-9.959716796875,26.635986328125,-16.966552734375
0.122,-15.204833984375,26.355712890625,-11.601318359375
0.1225,-18.848388671875,25.554931640625,-7.317138671875
0.123,-21.771240234375,24.634033203125,-3.473388671875
0.1235,-24.654052734375,22.071533203125,1.971923828125
0.124,-26.776123046875,19.228759765625,7.016845703125
0.1245,-26.656005859375,14.063720703125,11.981689453125
0.125,-26.896240234375,9.739501953125,16.466064453125
0.1255,-25.494873046875,5.094970703125,19.709228515625
0.126,-23.893310546875,0.570556640625,22.592041015625
0.1265,-21.250732421875,-4.554443359375,24.994384765625
0.127,-18.447998046875,-10.039794921875,27.556884765625
0.1275,-12.322021484375,-15.124755859375,26.515869140625
0.128,-8.197998046875,-19.008544921875,26.275634765625
0.1285,-3.833740234375,-21.651123046875,24.674072265625
0.129,2.092041015625,-24.694091796875,21.951416015625
0.1295,6.896728515625,-26.415771484375,18.908447265625
0.13,12.662353515625,-27.496826171875,14.343994140625
0.1305,16.946533203125,-26.976318359375,9.619384765625
0.131,20.429931640625,-25.775146484375,5.175048828125
0.1315,23.072509765625,-24.053466796875,0.890869140625
0.132,25.594970703125,-21.611083984375,-4.154052734375
0.1325,27.396728515625,-18.087646484375,-9.479248046875
0.133,26.355712890625,-12.241943359375,-14.243896484375
0.1335,26.555908203125,-8.598388671875,-18.007568359375
0.134,24.834228515625,-3.993896484375,-20.810302734375
0.1345,22.952392578125,0.650634765625,-23.532958984375
0.135,20.149658203125,5.495361328125,-25.534912109375
0.1355,16.225830078125,11.381103515625,-27.416748046875
0.136,10.500244140625,15.865478515625,-26.215576171875
0.1365,6.536376953125,19.348876953125,-25.775146484375
0.137,2.092041015625,21.551025390625,-23.653076171875
0.1375,-3.233154296875,24.353759765625,-21.290771484375
0.138,-7.957763671875,25.835205078125,-18.127685546875
0.1385,-13.723388671875,25.955322265625,-12.762451171875
0.139,-17.166748046875,25.875244140625,-9.239013671875
0.1395,-20.530029296875,24.473876953125,-4.514404296875
0.14,-22.932373046875,22.632080078125,-0.310302734375
0.1405,-25.094482421875,20.149658203125,4.414306640625
0.141,-26.736083984375,16.305908203125,9.819580078125
0.1415,-25.494873046875,10.620361328125,14.223876953125
0.142,-25.775146484375,7.337158203125,17.747314453125
0.1425,-23.973388671875,2.852783203125,20.389892578125
0.143,-22.291748046875,-1.911865234375,23.352783203125
0.1435,-19.529052734375,-6.676513671875,25.274658203125
0.144,-14.764404296875,-12.642333984375,26.475830078125
0.1445,-10.119873046875,-16.365966796875,25.594970703125
0.145,-5.755615234375,-20.049560546875,24.954345703125
0.1455,-1.071044921875,-22.211669921875,22.471923828125
0.146,4.013916015625,-25.014404296875,20.389892578125
0.1465,9.339111328125,-26.535888671875,16.626220703125
0.147,14.864501953125,-26.135498046875,10.900634765625
0.1475,17.987548828125,-26.255615234375,7.977783203125
0.148,21.631103515625,-24.533935546875,2.692626953125
0.1485,24.033447265625,-22.572021484375,-1.631591796875
0.149,25.915283203125,-19.729248046875,-6.396240234375
0.1495,27.116455078125,-14.964599609375,-12.281982421875
0.15,25.795166015625,-9.559326171875,-16.365966796875
0.1505,25.875244140625,-6.115966796875,-19.849365234375
0.151,23.512939453125,-1.111083984375,-22.411865234375
0.1515,21.791259765625,3.853759765625,-25.494873046875
0.152,17.907470703125,9.018798828125,-26.736083984375
0.1525,12.462158203125,15.144775390625,-27.376708984375
0.153,8.258056640625,18.307861328125,-26.415771484375
0.1535,3.093017578125,22.031494140625,-25.094482421875
0.154,-2.112060546875,24.033447265625,-22.091552734375
0.1545,-6.836669921875,26.395751953125,-19.889404296875
0.155,-12.682373046875,27.196533203125,-14.884521484375
0.1555,-17.487060546875,26.395751953125,-9.319091796875
0.156,-20.489990234375,26.195556640625,-6.276123046875
0.1565,-23.973388671875,23.673095703125,-0.350341796875
0.157,-26.215576171875,21.310791015625,4.254150390625
0.1575,-27.216552734375,17.667236328125,8.898681640625
0.158,-27.817138671875,12.502197265625,14.664306640625
0.1585,-26.255615234375,7.377197265625,18.227783203125
0.159,-25.775146484375,3.373291015625,21.631103515625
0.1595,-22.852294921875,-1.951904296875,23.913330078125
0.16,-21.090576171875,-6.596435546875,26.756103515625
0.1605,-16.085693359375,-11.921630859375,27.076416015625
0.161,-10.760498046875,-17.206787109375,27.036376953125
0.1615,-6.916748046875,-20.129638671875,26.115478515625
0.162,-1.071044921875,-23.572998046875,23.713134765625
0.1625,3.853759765625,-25.454833984375,20.830322265625
0.163,8.498291015625,-27.176513671875,18.147705078125
0.1635,14.384033203125,-27.416748046875,12.662353515625
0.164,18.387939453125,-26.255615234375,7.657470703125
0.1645,21.510986328125,-25.935302734375,4.294189453125
0.165,24.353759765625,-23.132568359375,-1.351318359375
0.1655,26.515869140625,-20.850341796875,-5.795654296875
0.166,26.716064453125,-16.365966796875,-10.440185546875
0.1665,27.036376953125,-11.401123046875,-15.765380859375
0.167,25.755126953125,-6.916748046875,-18.888427734375
0.1675,24.634033203125,-2.552490234375,-22.091552734375
0.168,21.951416015625,2.252197265625,-24.173583984375
0.1685,19.869384765625,7.056884765625,-26.776123046875
0.169,14.303955078125,12.622314453125,-26.696044921875
0.1695,9.259033203125,17.106689453125,-26.255615234375
0.17,5.775634765625,19.909423828125,-25.655029296875
0.1705,-0.310302734375,22.952392578125,-22.772216796875
0.171,-4.634521484375,24.954345703125,-20.449951171875
0.1715,-9.479248046875,26.155517578125,-16.926513671875
0.172,-14.964599609375,26.355712890625,-11.841552734375
0.1725,-18.407958984375,25.234619140625,-7.357177734375
0.173,-21.531005859375,24.473876953125,-3.473388671875
0.1735,-24.093505859375,21.831298828125,1.691650390625
0.174,-26.335693359375,19.388916015625,6.376220703125
0.1745,-25.935302734375,14.303955078125,11.020751953125
0.175,-26.295654296875,9.779541015625,15.865478515625
0.1755,-25.334716796875,5.775634765625,18.828369140625
0.176,-23.572998046875,0.770751953125,22.071533203125
0.1765,-21.330810546875,-3.713623046875,24.193603515625
0.177,-18.488037109375,-8.838623046875,26.435791015625
0.1775,-12.962646484375,-14.083740234375,26.075439453125
0.178,-8.318115234375,-18.087646484375,25.474853515625
0.1785,-4.514404296875,-20.890380859375,24.513916015625
0.179,1.451416015625,-23.853271484375,21.711181640625
0.1795,5.975830078125,-25.855224609375,19.348876953125
0.18,11.421142578125,-26.335693359375,14.544189453125
0.1805,16.185791015625,-26.615966796875,10.179931640625
