wavelength,x,y,z
0.0,4.334228515625,4.334228515625,-8.638427734375
0.0005,2.612548828125,5.775634765625,-8.478271484375
0.001,1.211181640625,6.776611328125,-7.997802734375
0.0015,-0.390380859375,7.737548828125,-7.477294921875
0.002,-2.232177734375,8.498291015625,-6.436279296875
0.0025,-3.913818359375,9.138916015625,-5.435302734375
0.003,-5.155029296875,8.938720703125,-4.033935546875
0.0035,-6.396240234375,8.618408203125,-2.552490234375
0.004,-7.116943359375,7.857666015625,-1.031005859375
0.0045,-7.877685546875,6.936767578125,0.730712890625
0.005,-8.638427734375,5.775634765625,2.612548828125
0.0055,-8.998779296875,4.734619140625,4.053955078125
0.006,-8.878662109375,3.173095703125,5.495361328125
0.0065,-8.238037109375,1.411376953125,6.616455078125
0.007,-7.477294921875,-0.350341796875,7.577392578125
0.0075,-6.156005859375,-2.392333984375,8.298095703125
0.008,-4.794677734375,-4.514404296875,8.978759765625
0.0085,-3.072998046875,-5.955810546875,8.698486328125
0.009,-1.471435546875,-7.397216796875,8.498291015625
0.0095,0.130126953125,-8.157958984375,7.817626953125
0.01,1.771728515625,-8.918701171875,7.056884765625
0.0105,3.773681640625,-9.639404296875,5.815673828125
0.011,5.255126953125,-9.879638671875,4.614501953125
0.0115,6.416259765625,-9.479248046875,3.093017578125
0.012,7.377197265625,-8.878662109375,1.571533203125
0.0125,8.097900390625,-7.997802734375,0.010009765625
0.013,8.658447265625,-6.756591796875,-1.831787109375
0.0135,9.339111328125,-5.555419921875,-3.793701171875
0.014,9.259033203125,-4.194091796875,-5.074951171875
0.0145,8.898681640625,-2.432373046875,-6.476318359375
0.015,7.977783203125,-0.790771484375,-7.277099609375
0.0155,7.177001953125,0.970947265625,-8.157958984375
0.016,5.735595703125,3.133056640625,-8.838623046875
0.0165,4.334228515625,4.934814453125,-9.239013671875
0.017,2.452392578125,6.256103515625,-8.718505859375
0.0175,0.930908203125,7.417236328125,-8.438232421875
0.018,-0.670654296875,8.218017578125,-7.637451171875
0.0185,-2.392333984375,8.818603515625,-6.636474609375
0.019,-4.354248046875,9.579345703125,-5.395263671875
0.0195,-5.635498046875,9.299072265625,-3.953857421875
0.02,-6.916748046875,8.978759765625,-2.392333984375
0.0205,-7.597412109375,8.137939453125,-0.910888671875
0.021,-8.318115234375,7.177001953125,0.770751953125
0.0215,-8.838623046875,5.935791015625,2.572509765625
0.022,-9.359130859375,4.774658203125,4.334228515625
0.0225,-9.038818359375,3.253173828125,5.575439453125
0.023,-8.638427734375,1.451416015625,6.896728515625
0.0235,-7.637451171875,-0.270263671875,7.617431640625
0.024,-6.636474609375,-2.072021484375,8.458251953125
0.0245,-5.114990234375,-4.314208984375,9.098876953125
0.025,-3.473388671875,-5.915771484375,9.058837890625
0.0255,-1.751708984375,-7.237060546875,8.618408203125
0.026,-0.270263671875,-8.117919921875,8.137939453125
0.0265,1.411376953125,-8.838623046875,7.297119140625
0.027,3.173095703125,-9.479248046875,6.216064453125
0.0275,5.054931640625,-10.079833984375,5.014892578125
0.028,6.095947265625,-9.559326171875,3.493408203125
0.0285,7.297119140625,-9.239013671875,1.971923828125
0.029,7.857666015625,-8.238037109375,0.490478515625
0.0295,8.498291015625,-7.277099609375,-1.191162109375
0.03,9.098876953125,-6.035888671875,-3.072998046875
0.0305,9.379150390625,-4.834716796875,-4.514404296875
0.031,9.018798828125,-3.193115234375,-5.795654296875
0.0315,8.338134765625,-1.511474609375,-6.836669921875
0.032,7.497314453125,0.130126953125,-7.597412109375
0.0325,6.376220703125,1.931884765625,-8.318115234375
0.033,4.974853515625,4.053955078125,-9.038818359375
0.0335,3.333251953125,5.415283203125,-8.718505859375
0.034,1.691650390625,6.776611328125,-8.478271484375
0.0345,0.290283203125,7.537353515625,-7.837646484375
0.035,-1.311279296875,8.298095703125,-7.076904296875
0.0355,-3.153076171875,8.938720703125,-5.995849609375
0.036,-4.674560546875,9.299072265625,-4.834716796875
0.0365,-5.755615234375,8.818603515625,-3.313232421875
0.037,-6.876708984375,8.458251953125,-1.871826171875
0.0375,-7.517333984375,7.577392578125,-0.390380859375
0.038,-8.197998046875,6.576416015625,1.291259765625
0.0385,-8.878662109375,5.495361328125,3.093017578125
0.039,-8.958740234375,4.334228515625,4.374267578125
0.0395,-8.678466796875,2.692626953125,5.735595703125
0.04,-7.997802734375,1.010986328125,6.696533203125
0.0405,-7.197021484375,-0.790771484375,7.617431640625
0.041,-5.955810546875,-2.672607421875,8.298095703125
0.0415,-4.554443359375,-4.634521484375,8.818603515625
0.042,-2.872802734375,-5.795654296875,8.458251953125
0.0425,-1.391357421875,-7.156982421875,8.258056640625
0.043,0.130126953125,-7.917724609375,7.617431640625
0.0435,1.771728515625,-8.678466796875,6.816650390625
0.044,3.573486328125,-9.479248046875,5.775634765625
0.0445,4.934814453125,-9.479248046875,4.534423828125
0.045,6.135986328125,-9.198974609375,3.133056640625
0.0455,7.016845703125,-8.598388671875,1.651611328125
0.046,7.737548828125,-7.757568359375,0.130126953125
0.0465,8.338134765625,-6.756591796875,-1.591552734375
0.047,9.018798828125,-5.715576171875,-3.313232421875
0.0475,8.898681640625,-4.354248046875,-4.554443359375
0.048,8.538330078125,-2.632568359375,-5.915771484375
0.0485,7.737548828125,-1.071044921875,-6.756591796875
0.049,6.976806640625,0.650634765625,-7.717529296875
0.0495,5.775634765625,2.652587890625,-8.478271484375
0.05,4.334228515625,4.414306640625,-8.718505859375
0.0505,2.692626953125,5.735595703125,-8.358154296875
0.051,1.251220703125,6.856689453125,-8.037841796875
0.0515,-0.310302734375,7.657470703125,-7.437255859375
0.052,-1.951904296875,8.378173828125,-6.596435546875
0.0525,-3.713623046875,9.098876953125,-5.555419921875
0.053,-4.914794921875,8.818603515625,-4.154052734375
0.0535,-6.236083984375,8.658447265625,-2.712646484375
0.054,-6.956787109375,7.897705078125,-1.271240234375
0.0545,-7.717529296875,7.056884765625,0.410400390625
0.055,-8.438232421875,6.055908203125,2.132080078125
0.0555,-8.958740234375,4.934814453125,3.773681640625
0.056,-8.718505859375,3.453369140625,5.054931640625
0.0565,-8.318115234375,1.651611328125,6.376220703125
0.057,-7.437255859375,0.050048828125,7.177001953125
0.0575,-6.556396484375,-1.831787109375,8.057861328125
0.058,-5.155029296875,-3.873779296875,8.818603515625
0.0585,-3.553466796875,-5.395263671875,8.658447265625
0.059,-1.951904296875,-6.756591796875,8.458251953125
0.0595,-0.430419921875,-7.717529296875,7.897705078125
0.06,1.211181640625,-8.518310546875,7.136962890625
0.0605,3.012939453125,-9.279052734375,6.135986328125
0.061,4.694580078125,-9.759521484375,5.054931640625
0.0615,5.815673828125,-9.279052734375,3.533447265625
0.062,7.016845703125,-8.998779296875,2.052001953125
0.0625,7.657470703125,-8.077880859375,0.530517578125
0.063,8.378173828125,-7.116943359375,-1.231201171875
0.0635,9.098876953125,-5.955810546875,-3.153076171875
0.064,9.218994140625,-4.594482421875,-4.634521484375
0.0645,8.858642578125,-2.952880859375,-5.915771484375
0.065,8.177978515625,-1.271240234375,-6.996826171875
0.0655,7.297119140625,0.450439453125,-7.757568359375
0.066,6.135986328125,2.412353515625,-8.518310546875
0.0665,4.734619140625,4.494384765625,-9.158935546875
0.067,2.852783203125,5.815673828125,-8.678466796875
0.0675,1.331298828125,7.096923828125,-8.478271484375
0.068,-0.270263671875,7.857666015625,-7.717529296875
0.0685,-1.871826171875,8.578369140625,-6.796630859375
0.069,-3.833740234375,9.299072265625,-5.715576171875
0.0695,-5.315185546875,9.419189453125,-4.314208984375
0.07,-6.516357421875,8.938720703125,-2.712646484375
0.0705,-7.477294921875,8.298095703125,-1.191162109375
0.071,-8.037841796875,7.297119140625,0.490478515625
0.0715,-8.718505859375,6.256103515625,2.172119140625
0.072,-9.439208984375,5.054931640625,4.134033203125
0.0725,-9.118896484375,3.453369140625,5.415283203125
0.073,-8.718505859375,1.731689453125,6.776611328125
0.0735,-7.757568359375,-0.150146484375,7.537353515625
0.074,-6.756591796875,-1.871826171875,8.378173828125
0.0745,-5.395263671875,-3.993896484375,9.058837890625
0.075,-3.673583984375,-5.835693359375,9.259033203125
0.0755,-1.831787109375,-7.076904296875,8.658447265625
0.076,-0.310302734375,-8.238037109375,8.298095703125
0.0765,1.451416015625,-8.958740234375,7.337158203125
0.077,3.173095703125,-9.559326171875,6.296142578125
0.0775,5.135009765625,-10.239990234375,5.094970703125
0.078,6.376220703125,-9.839599609375,3.493408203125
0.0785,7.537353515625,-9.359130859375,1.931884765625
0.079,8.218017578125,-8.438232421875,0.330322265625
0.0795,8.778564453125,-7.357177734375,-1.351318359375
0.08,9.299072265625,-6.156005859375,-3.153076171875
0.0805,9.779541015625,-4.834716796875,-5.034912109375
0.081,9.178955078125,-2.992919921875,-6.236083984375
0.0815,8.658447265625,-1.311279296875,-7.437255859375
0.082,7.537353515625,0.530517578125,-8.037841796875
0.0825,6.456298828125,2.332275390625,-8.798583984375
0.083,4.974853515625,4.494384765625,-9.479248046875
0.0835,3.133056640625,6.095947265625,-9.198974609375
0.084,1.331298828125,7.377197265625,-8.678466796875
0.0845,-0.310302734375,8.258056640625,-8.037841796875
0.085,-1.991943359375,8.898681640625,-6.996826171875
0.0855,-3.753662109375,9.459228515625,-5.915771484375
0.086,-5.635498046875,9.979736328125,-4.634521484375
0.0865,-6.676513671875,9.259033203125,-2.872802734375
0.087,-7.837646484375,8.818603515625,-1.311279296875
0.0875,-8.358154296875,7.697509765625,0.370361328125
0.088,-8.958740234375,6.536376953125,2.052001953125
0.0885,-9.559326171875,5.255126953125,3.973876953125
0.089,-9.639404296875,3.773681640625,5.615478515625
0.0895,-8.958740234375,1.931884765625,6.776611328125
0.09,-8.318115234375,0.210205078125,7.937744140625
0.0905,-7.076904296875,-1.751708984375,8.498291015625
0.091,-5.835693359375,-3.633544921875,9.218994140625
0.0915,-4.154052734375,-5.795654296875,9.659423828125
0.092,-2.192138671875,-7.156982421875,9.058837890625
0.0925,-0.510498046875,-8.358154296875,8.658447265625
0.093,1.251220703125,-9.118896484375,7.737548828125
0.0935,3.093017578125,-9.759521484375,6.536376953125
0.094,4.934814453125,-10.360107421875,5.375244140625
0.0945,6.536376953125,-10.520263671875,3.933837890625
0.095,7.537353515625,-9.639404296875,2.212158203125
0.0955,8.538330078125,-8.998779296875,0.610595703125
0.096,8.978759765625,-7.677490234375,-1.231201171875
0.0965,9.499267578125,-6.556396484375,-2.912841796875
0.097,10.059814453125,-5.235107421875,-4.834716796875
0.0975,9.659423828125,-3.473388671875,-6.276123046875
0.098,8.938720703125,-1.591552734375,-7.397216796875
0.0985,8.017822265625,0.290283203125,-8.278076171875
0.099,6.696533203125,2.212158203125,-8.838623046875
0.0995,5.415283203125,4.134033203125,-9.479248046875
0.1,3.653564453125,6.135986328125,-9.719482421875
0.1005,1.651611328125,7.337158203125,-8.958740234375
0.101,0.050048828125,8.378173828125,-8.478271484375
0.1015,-1.791748046875,9.018798828125,-7.397216796875
0.102,-3.553466796875,9.579345703125,-6.196044921875
0.1025,-5.435302734375,10.099853515625,-4.954833984375
0.103,-6.756591796875,9.779541015625,-3.313232421875
0.1035,-7.797607421875,9.058837890625,-1.591552734375
0.104,-8.598388671875,8.177978515625,0.050048828125
0.1045,-8.998779296875,6.736572265625,1.931884765625
0.105,-9.519287109375,5.655517578125,3.533447265625
0.1055,-9.999755859375,4.254150390625,5.415283203125
0.106,-9.279052734375,2.412353515625,6.696533203125
0.1065,-8.678466796875,0.650634765625,7.817626953125
0.107,-7.437255859375,-1.311279296875,8.458251953125
0.1075,-6.115966796875,-3.273193359375,9.098876953125
0.108,-4.634521484375,-5.195068359375,9.579345703125
0.1085,-2.832763671875,-6.916748046875,9.459228515625
0.109,-0.990966796875,-8.037841796875,8.698486328125
0.1095,0.690673828125,-8.998779296875,8.137939453125
0.11,2.612548828125,-9.559326171875,6.776611328125
0.1105,4.214111328125,-10.039794921875,5.735595703125
0.111,5.975830078125,-10.520263671875,4.494384765625
0.1115,7.056884765625,-9.759521484375,2.852783203125
0.112,8.017822265625,-9.158935546875,1.251220703125
0.1125,8.618408203125,-8.157958984375,-0.430419921875
0.113,9.018798828125,-6.916748046875,-2.152099609375
0.1135,9.619384765625,-5.795654296875,-3.793701171875
0.114,9.739501953125,-4.234130859375,-5.475341796875
0.1145,8.938720703125,-2.392333984375,-6.556396484375
0.115,8.298095703125,-0.710693359375,-7.637451171875
0.1155,7.056884765625,1.131103515625,-8.157958984375
0.116,6.015869140625,2.852783203125,-8.838623046875
0.1165,4.534423828125,4.774658203125,-9.279052734375
0.117,2.732666015625,6.176025390625,-8.838623046875
0.1175,1.091064453125,7.297119140625,-8.318115234375
0.118,-0.470458984375,8.137939453125,-7.717529296875
0.1185,-2.072021484375,8.618408203125,-6.636474609375
0.119,-3.593505859375,9.138916015625,-5.755615234375
0.1195,-5.155029296875,9.459228515625,-4.514404296875
0.12,-6.156005859375,8.738525390625,-2.912841796875
0.1205,-7.156982421875,8.258056640625,-1.471435546875
0.121,-7.637451171875,7.177001953125,0.090087890625
0.1215,-8.318115234375,6.336181640625,1.611572265625
0.122,-8.878662109375,5.375244140625,3.213134765625
0.1225,-8.878662109375,3.973876953125,4.654541015625
0.123,-8.318115234375,2.412353515625,5.735595703125
0.1235,-7.797607421875,0.690673828125,6.856689453125
0.124,-6.756591796875,-0.990966796875,7.457275390625
0.1245,-5.875732421875,-2.632568359375,8.258056640625
0.125,-4.434326171875,-4.434326171875,8.578369140625
0.1255,-2.832763671875,-5.635498046875,8.258056640625
0.126,-1.431396484375,-6.836669921875,7.977783203125
0.1265,0.050048828125,-7.677490234375,7.417236328125
0.127,1.531494140625,-8.358154296875,6.696533203125
0.1275,3.052978515625,-9.038818359375,5.895751953125
0.128,4.334228515625,-9.118896484375,4.734619140625
0.1285,5.415283203125,-8.838623046875,3.413330078125
0.129,6.456298828125,-8.398193359375,2.011962890625
0.1295,7.056884765625,-7.637451171875,0.610595703125
0.13,7.937744140625,-6.996826171875,-0.950927734375
0.1305,8.538330078125,-6.035888671875,-2.472412109375
0.131,8.458251953125,-4.634521484375,-3.793701171875
0.1315,8.137939453125,-3.193115234375,-4.994873046875
0.132,7.577392578125,-1.631591796875,-5.995849609375
0.1325,6.976806640625,0.010009765625,-6.956787109375
0.133,6.256103515625,1.571533203125,-7.837646484375
0.1335,4.854736328125,3.213134765625,-8.077880859375
0.134,3.493408203125,4.494384765625,-7.957763671875
0.1345,2.092041015625,5.735595703125,-7.837646484375
0.135,0.770751953125,6.576416015625,-7.397216796875
0.1355,-0.710693359375,7.537353515625,-6.916748046875
0.136,-2.232177734375,8.258056640625,-6.156005859375
0.1365,-3.513427734375,8.177978515625,-4.914794921875
0.137,-4.754638671875,8.137939453125,-3.673583984375
0.1375,-5.755615234375,7.697509765625,-2.312255859375
0.138,-6.636474609375,7.177001953125,-0.870849609375
0.1385,-7.637451171875,6.696533203125,0.650634765625
0.139,-8.238037109375,5.735595703125,2.212158203125
0.1395,-8.197998046875,4.454345703125,3.493408203125
0.14,-8.037841796875,2.852783203125,4.974853515625
0.1405,-7.397216796875,1.251220703125,5.975830078125
0.141,-6.836669921875,-0.510498046875,7.096923828125
0.1415,-5.795654296875,-2.272216796875,7.817626953125
0.142,-4.394287109375,-3.833740234375,7.937744140625
0.1425,-3.032958984375,-5.155029296875,7.937744140625
0.143,-1.591552734375,-6.396240234375,7.737548828125
0.1435,-0.150146484375,-7.317138671875,7.217041015625
0.144,1.451416015625,-8.318115234375,6.696533203125
0.1445,2.972900390625,-8.918701171875,5.775634765625
0.145,4.214111328125,-8.798583984375,4.494384765625
0.1455,5.495361328125,-8.638427734375,3.093017578125
0.146,6.376220703125,-7.997802734375,1.651611328125
0.1465,7.377197265625,-7.397216796875,0.130126953125
0.147,8.218017578125,-6.716552734375,-1.551513671875
0.1475,8.538330078125,-5.435302734375,-3.072998046875
0.148,8.298095703125,-3.993896484375,-4.354248046875
0.1485,7.977783203125,-2.272216796875,-5.755615234375
0.149,7.297119140625,-0.670654296875,-6.636474609375
0.1495,6.576416015625,1.131103515625,-7.717529296875
0.15,5.255126953125,3.012939453125,-8.278076171875
0.1505,3.653564453125,4.494384765625,-8.117919921875
0.151,2.212158203125,5.815673828125,-7.997802734375
0.1515,0.730712890625,6.856689453125,-7.597412109375
0.152,-0.910888671875,7.697509765625,-6.916748046875
0.1525,-2.552490234375,8.538330078125,-6.156005859375
0.153,-4.114013671875,8.738525390625,-4.874755859375
0.1535,-5.315185546875,8.418212890625,-3.393310546875
0.154,-6.516357421875,8.057861328125,-1.911865234375
0.1545,-7.156982421875,7.177001953125,-0.310302734375
0.155,-8.157958984375,6.456298828125,1.371337890625
0.1555,-8.838623046875,5.455322265625,3.093017578125
0.156,-8.678466796875,3.853759765625,4.614501953125
0.1565,-8.318115234375,2.252197265625,5.895751953125
0.157,-7.637451171875,0.450439453125,6.976806640625
0.1575,-6.556396484375,-1.471435546875,7.777587890625
0.158,-5.435302734375,-3.433349609375,8.578369140625
0.1585,-3.833740234375,-5.235107421875,8.778564453125
0.159,-2.072021484375,-6.556396484375,8.378173828125
0.1595,-0.590576171875,-7.717529296875,8.017822265625
0.16,1.291259765625,-8.558349609375,7.096923828125
0.1605,3.093017578125,-9.319091796875,6.095947265625
0.161,4.774658203125,-9.879638671875,5.054931640625
0.1615,6.095947265625,-9.639404296875,3.493408203125
0.162,7.096923828125,-8.998779296875,1.931884765625
0.1625,8.017822265625,-8.278076171875,0.290283203125
0.163,8.618408203125,-6.956787109375,-1.591552734375
0.1635,9.259033203125,-5.955810546875,-3.233154296875
0.164,9.579345703125,-4.594482421875,-4.994873046875
0.1645,8.978759765625,-2.672607421875,-6.276123046875
0.165,8.298095703125,-0.990966796875,-7.397216796875
0.1655,7.136962890625,1.010986328125,-8.157958984375
0.166,5.855712890625,3.093017578125,-8.918701171875
0.1665,4.494384765625,4.934814453125,-9.319091796875
0.167,2.572509765625,6.536376953125,-9.118896484375
0.1675,0.890869140625,7.617431640625,-8.478271484375
0.168,-0.790771484375,8.578369140625,-7.837646484375
0.1685,-2.872802734375,9.138916015625,-6.476318359375
0.169,-4.594482421875,9.659423828125,-5.275146484375
0.1695,-6.156005859375,9.739501953125,-3.953857421875
0.17,-7.277099609375,9.178955078125,-2.272216796875
0.1705,-8.157958984375,8.378173828125,-0.630615234375
0.171,-8.798583984375,7.297119140625,1.251220703125
0.1715,-9.279052734375,5.815673828125,3.173095703125
0.172,-9.639404296875,4.694580078125,4.734619140625
0.1725,-9.639404296875,3.093017578125,6.336181640625
0.173,-8.718505859375,1.131103515625,7.377197265625
0.1735,-7.957763671875,-0.710693359375,8.418212890625
0.174,-6.356201171875,-2.952880859375,9.018798828125
0.1745,-4.874755859375,-4.994873046875,9.619384765625
0.175,-3.153076171875,-6.716552734375,9.579345703125
0.1755,-1.311279296875,-7.997802734375,9.018798828125
0.176,0.410400390625,-8.838623046875,8.298095703125
0.1765,2.212158203125,-9.719482421875,7.377197265625
0.177,4.294189453125,-10.239990234375,5.855712890625
0.1775,5.855712890625,-10.520263671875,4.574462890625
0.178,7.217041015625,-10.320068359375,3.093017578125
0.1785,8.137939453125,-9.399169921875,1.411376953125
0.179,8.858642578125,-8.478271484375,-0.310302734375
0.1795,9.259033203125,-7.076904296875,-2.192138671875
0.18,9.739501953125,-5.755615234375,-3.993896484375
0.1805,9.899658203125,-4.514404296875,-5.435302734375
0.181,9.579345703125,-2.712646484375,-6.876708984375
0.1815,8.498291015625,-0.870849609375,-7.677490234375
0.182,7.617431640625,0.970947265625,-8.598388671875
0.1825,5.935791015625,3.173095703125,-9.078857421875
0.183,4.614501953125,4.974853515625,-9.559326171875
0.1835,2.852783203125,6.536376953125,-9.319091796875
0.184,1.091064453125,7.697509765625,-8.718505859375
0.1845,-0.590576171875,8.418212890625,-7.997802734375
0.185,-2.312255859375,9.058837890625,-6.916748046875
0.1855,-4.154052734375,9.539306640625,-5.635498046875
0.186,-5.515380859375,9.659423828125,-4.434326171875
0.1865,-6.796630859375,9.339111328125,-2.872802734375
0.187,-7.557373046875,8.498291015625,-1.271240234375
0.1875,-8.358154296875,7.697509765625,0.330322265625
0.188,-8.718505859375,6.256103515625,2.172119140625
