wavelength,x,y,z
0.0,12.502197265625,-22.291748046875,10.260009765625
0.0005,15.985595703125,-21.170654296875,5.895751953125
0.001,19.148681640625,-19.328857421875,1.051025390625
0.0015,21.551025390625,-17.006591796875,-3.713623046875
0.002,22.271728515625,-14.764404296875,-6.596435546875
0.0025,22.592041015625,-11.881591796875,-9.839599609375
0.003,22.071533203125,-7.797607421875,-13.443115234375
0.0035,20.750244140625,-3.193115234375,-16.726318359375
0.004,18.908447265625,1.411376953125,-19.408935546875
0.0045,16.946533203125,5.255126953125,-21.410888671875
0.005,14.303955078125,8.258056640625,-21.811279296875
0.0055,11.140869140625,11.341064453125,-21.771240234375
0.006,6.376220703125,15.064697265625,-20.930419921875
0.0065,1.051025390625,18.267822265625,-19.088623046875
0.007,-3.833740234375,20.469970703125,-16.686279296875
0.0075,-6.876708984375,21.551025390625,-15.004638671875
0.008,-9.959716796875,21.911376953125,-12.522216796875
0.0085,-13.162841796875,21.390869140625,-8.918701171875
0.009,-16.486083984375,20.069580078125,-4.474365234375
0.0095,-19.368896484375,18.067626953125,0.410400390625
0.01,-21.410888671875,15.985595703125,4.494384765625
0.0105,-21.731201171875,13.503173828125,7.217041015625
0.011,-21.891357421875,10.500244140625,10.420166015625
0.0115,-21.170654296875,6.135986328125,14.103759765625
0.012,-19.849365234375,1.771728515625,17.146728515625
0.0125,-17.807373046875,-2.632568359375,19.509033203125
0.013,-16.005615234375,-5.915771484375,20.990478515625
0.0135,-13.443115234375,-8.838623046875,21.470947265625
0.014,-9.639404296875,-12.081787109375,21.070556640625
0.0145,-4.914794921875,-15.525146484375,19.869384765625
0.015,0.330322265625,-18.568115234375,17.947509765625
0.0155,4.534423828125,-20.449951171875,15.865478515625
0.016,7.177001953125,-21.050537109375,13.983642578125
0.0165,10.260009765625,-21.330810546875,11.501220703125
0.017,13.783447265625,-20.530029296875,7.457275390625
0.0175,16.786376953125,-19.088623046875,3.052978515625
0.018,19.348876953125,-17.046630859375,-1.431396484375
0.0185,20.950439453125,-15.204833984375,-4.914794921875
0.019,21.110595703125,-12.602294921875,-7.717529296875
0.0195,21.070556640625,-9.359130859375,-10.880615234375
0.02,20.149658203125,-5.074951171875,-14.364013671875
0.0205,18.748291015625,-0.670654296875,-17.326904296875
0.021,16.786376953125,3.373291015625,-19.368896484375
0.0215,14.784423828125,6.135986328125,-20.209716796875
0.022,12.261962890625,9.098876953125,-20.730224609375
0.0225,7.897705078125,12.662353515625,-20.049560546875
0.023,3.333251953125,15.665283203125,-18.648193359375
0.0235,-1.551513671875,18.307861328125,-16.726318359375
0.024,-5.114990234375,19.989501953125,-15.084716796875
0.0245,-7.717529296875,20.309814453125,-12.922607421875
0.025,-10.480224609375,20.429931640625,-10.560302734375
0.0255,-14.123779296875,19.509033203125,-6.115966796875
0.026,-16.966552734375,17.867431640625,-1.751708984375
0.0265,-19.088623046875,15.945556640625,2.292236328125
0.027,-20.209716796875,14.143798828125,5.255126953125
0.0275,-20.449951171875,11.501220703125,8.017822265625
0.028,-20.169677734375,7.817626953125,11.461181640625
0.0285,-19.168701171875,3.853759765625,14.424072265625
0.029,-17.767333984375,-0.470458984375,17.306884765625
0.0295,-16.005615234375,-4.033935546875,19.228759765625
0.03,-13.843505859375,-6.596435546875,19.709228515625
0.0305,-11.401123046875,-9.399169921875,20.109619140625
0.031,-6.596435546875,-13.322998046875,19.268798828125
0.0315,-1.911865234375,-16.165771484375,17.627197265625
0.032,2.252197265625,-18.287841796875,15.865478515625
0.0325,5.255126953125,-19.609130859375,14.464111328125
0.033,7.977783203125,-19.889404296875,12.221923828125
0.0335,10.940673828125,-19.689208984375,9.218994140625
0.034,14.263916015625,-18.728271484375,5.135009765625
0.0345,17.146728515625,-17.006591796875,0.650634765625
0.035,19.068603515625,-15.244873046875,-2.952880859375
0.0355,19.589111328125,-13.322998046875,-5.515380859375
0.036,19.949462890625,-10.800537109375,-8.358154296875
0.0365,19.388916015625,-6.516357421875,-12.121826171875
0.037,18.307861328125,-2.672607421875,-14.844482421875
0.0375,16.786376953125,1.291259765625,-17.326904296875
0.038,15.224853515625,4.494384765625,-19.008544921875
0.0385,12.782470703125,7.096923828125,-19.248779296875
0.039,9.939697265625,9.979736328125,-19.368896484375
0.0395,5.215087890625,13.623291015625,-18.447998046875
0.04,0.370361328125,16.506103515625,-16.726318359375
0.0405,-3.353271484375,18.387939453125,-15.044677734375
0.041,-5.955810546875,19.348876953125,-13.603271484375
0.0415,-8.758544921875,19.709228515625,-11.401123046875
0.042,-12.201904296875,18.988525390625,-7.477294921875
0.0425,-14.964599609375,17.907470703125,-3.713623046875
0.043,-17.567138671875,16.145751953125,0.610595703125
0.0435,-19.168701171875,14.464111328125,3.853759765625
0.044,-19.408935546875,12.181884765625,6.376220703125
0.0445,-19.689208984375,9.499267578125,9.259033203125
0.045,-18.968505859375,5.135009765625,12.982666015625
0.0455,-17.727294921875,1.051025390625,15.865478515625
0.046,-16.085693359375,-2.552490234375,17.787353515625
0.0465,-14.604248046875,-5.395263671875,19.188720703125
0.047,-12.041748046875,-8.197998046875,19.468994140625
0.0475,-7.997802734375,-11.681396484375,19.028564453125
0.048,-3.753662109375,-14.684326171875,17.907470703125
0.0485,1.010986328125,-17.326904296875,16.145751953125
0.049,4.294189453125,-18.888427734375,14.584228515625
0.0495,6.856689453125,-19.368896484375,12.742431640625
0.05,9.539306640625,-19.769287109375,10.620361328125
0.0505,13.343017578125,-18.768310546875,6.055908203125
0.051,16.065673828125,-17.326904296875,1.931884765625
0.0515,18.187744140625,-15.685302734375,-1.791748046875
0.052,19.468994140625,-13.963623046875,-4.754638671875
0.0525,19.509033203125,-11.321044921875,-7.397216796875
0.053,19.388916015625,-7.957763671875,-10.760498046875
0.0535,18.588134765625,-3.993896484375,-13.843505859375
0.054,17.186767578125,0.330322265625,-16.726318359375
0.0545,15.425048828125,3.573486328125,-18.287841796875
0.055,13.543212890625,6.216064453125,-19.088623046875
0.0555,11.180908203125,8.978759765625,-19.529052734375
0.056,6.095947265625,12.902587890625,-18.568115234375
0.0565,1.851806640625,15.665283203125,-17.166748046875
0.057,-2.432373046875,17.907470703125,-15.525146484375
0.0575,-5.435302734375,19.348876953125,-14.083740234375
0.058,-8.117919921875,19.388916015625,-11.681396484375
0.0585,-10.840576171875,19.468994140625,-9.198974609375
0.059,-14.404052734375,18.387939453125,-4.754638671875
0.0595,-17.126708984375,16.506103515625,-0.270263671875
0.06,-18.728271484375,14.904541015625,2.972900390625
0.0605,-19.609130859375,12.942626953125,5.735595703125
0.061,-19.729248046875,10.420166015625,8.418212890625
0.0615,-19.208740234375,6.055908203125,12.302001953125
0.062,-18.127685546875,2.372314453125,14.984619140625
0.0625,-16.726318359375,-1.671630859375,17.587158203125
0.063,-15.004638671875,-4.874755859375,19.068603515625
0.0635,-12.562255859375,-7.477294921875,19.228759765625
0.064,-9.919677734375,-10.400146484375,19.509033203125
0.0645,-4.714599609375,-14.163818359375,18.347900390625
0.065,0.130126953125,-16.806396484375,16.466064453125
0.0655,3.453369140625,-18.488037109375,14.984619140625
0.066,6.336181640625,-19.649169921875,13.423095703125
0.0665,9.098876953125,-19.609130859375,10.900634765625
0.067,12.302001953125,-19.048583984375,7.217041015625
0.0675,15.304931640625,-17.927490234375,3.333251953125
0.068,17.907470703125,-16.005615234375,-1.151123046875
0.0685,19.148681640625,-14.364013671875,-4.073974609375
0.069,19.509033203125,-12.041748046875,-6.716552734375
0.0695,19.709228515625,-9.519287109375,-9.479248046875
0.07,18.908447265625,-4.794677734375,-13.403076171875
0.0705,17.467041015625,-0.790771484375,-16.005615234375
0.071,15.945556640625,2.652587890625,-17.927490234375
0.0715,14.303955078125,5.655517578125,-19.288818359375
0.072,11.461181640625,8.298095703125,-19.208740234375
0.0725,7.817626953125,11.661376953125,-18.968505859375
0.073,3.253173828125,14.904541015625,-17.887451171875
0.0735,-1.671630859375,17.547119140625,-15.765380859375
0.074,-4.514404296875,18.748291015625,-14.364013671875
0.0745,-7.277099609375,19.468994140625,-12.522216796875
0.075,-9.879638671875,19.549072265625,-10.239990234375
0.0755,-13.563232421875,18.427978515625,-5.595458984375
0.076,-16.205810546875,16.986572265625,-1.591552734375
0.0765,-18.407958984375,15.385009765625,2.212158203125
0.077,-19.368896484375,13.583251953125,4.934814453125
0.0775,-19.368896484375,10.860595703125,7.617431640625
0.078,-19.368896484375,7.737548828125,10.740478515625
0.0785,-18.528076171875,3.573486328125,14.103759765625
0.079,-16.966552734375,-0.790771484375,16.866455078125
0.0795,-15.324951171875,-3.793701171875,18.267822265625
0.08,-13.643310546875,-6.556396484375,19.388916015625
0.0805,-10.840576171875,-9.279052734375,19.348876953125
0.081,-6.035888671875,-13.002685546875,18.427978515625
0.0815,-1.711669921875,-15.845458984375,17.146728515625
0.082,2.572509765625,-18.087646484375,15.385009765625
0.0825,5.335205078125,-19.128662109375,13.903564453125
0.083,8.177978515625,-19.368896484375,11.541259765625
0.0835,10.820556640625,-19.408935546875,9.098876953125
0.084,14.384033203125,-18.247802734375,4.494384765625
0.0845,17.146728515625,-16.365966796875,-0.150146484375
0.085,18.668212890625,-14.844482421875,-3.072998046875
0.0855,19.549072265625,-13.002685546875,-5.795654296875
0.086,19.509033203125,-10.199951171875,-8.518310546875
0.0865,18.988525390625,-6.115966796875,-12.041748046875
0.087,18.067626953125,-2.392333984375,-15.004638671875
0.0875,16.586181640625,1.851806640625,-17.647216796875
0.088,14.704345703125,4.694580078125,-18.768310546875
0.0885,12.502197265625,7.537353515625,-19.368896484375
0.089,9.579345703125,10.460205078125,-19.489013671875
0.0895,4.294189453125,14.263916015625,-18.167724609375
0.09,-0.390380859375,16.946533203125,-16.446044921875
0.0905,-3.873779296875,18.748291015625,-14.924560546875
0.091,-6.716552734375,19.709228515625,-13.322998046875
0.0915,-9.639404296875,19.629150390625,-10.520263671875
0.092,-12.682373046875,19.148681640625,-7.116943359375
0.0925,-15.845458984375,17.867431640625,-2.872802734375
0.093,-18.447998046875,15.825439453125,1.811767578125
0.0935,-19.489013671875,14.103759765625,4.494384765625
0.094,-20.049560546875,11.781494140625,7.377197265625
0.0945,-19.969482421875,8.818603515625,10.219970703125
0.095,-19.088623046875,4.174072265625,13.943603515625
0.0955,-17.687255859375,0.170166015625,16.666259765625
0.096,-16.165771484375,-3.553466796875,18.868408203125
0.0965,-14.163818359375,-6.436279296875,19.829345703125
0.097,-11.240966796875,-9.279052734375,19.869384765625
0.0975,-7.677490234375,-12.642333984375,19.669189453125
0.098,-2.512451171875,-16.005615234375,18.067626953125
0.0985,2.372314453125,-18.488037109375,15.985595703125
0.099,5.255126953125,-19.649169921875,14.424072265625
0.0995,8.137939453125,-20.369873046875,12.502197265625
0.1,11.060791015625,-20.169677734375,9.579345703125
0.1005,14.504150390625,-19.048583984375,5.215087890625
0.101,17.346923828125,-17.567138671875,0.970947265625
0.1015,19.669189453125,-15.565185546875,-3.273193359375
0.102,20.229736328125,-13.563232421875,-5.915771484375
0.1025,20.469970703125,-10.680419921875,-8.958740234375
0.103,20.149658203125,-7.397216796875,-12.041748046875
0.1035,19.028564453125,-2.872802734375,-15.405029296875
0.104,17.306884765625,1.611572265625,-17.967529296875
0.1045,15.545166015625,4.774658203125,-19.529052734375
0.105,13.423095703125,7.617431640625,-20.369873046875
0.1055,10.059814453125,10.580322265625,-20.049560546875
0.106,5.575439453125,14.103759765625,-19.208740234375
0.1065,0.730712890625,17.146728515625,-17.647216796875
0.107,-3.953857421875,19.348876953125,-15.445068359375
0.1075,-6.556396484375,20.069580078125,-13.763427734375
0.108,-9.559326171875,20.469970703125,-11.481201171875
0.1085,-12.482177734375,20.109619140625,-8.278076171875
0.109,-15.805419921875,18.628173828125,-3.673583984375
0.1095,-18.447998046875,16.746337890625,0.850830078125
0.11,-20.209716796875,14.904541015625,4.414306640625
0.1105,-20.610107421875,12.662353515625,7.056884765625
0.111,-20.610107421875,9.499267578125,10.179931640625
0.1115,-19.929443359375,5.495361328125,13.503173828125
0.112,-18.728271484375,1.291259765625,16.586181640625
0.1125,-16.806396484375,-3.032958984375,18.948486328125
0.113,-14.884521484375,-5.915771484375,19.989501953125
0.1135,-12.682373046875,-8.758544921875,20.670166015625
0.114,-8.838623046875,-12.041748046875,20.189697265625
0.1145,-3.913818359375,-15.405029296875,18.788330078125
0.115,0.930908203125,-18.127685546875,16.986572265625
0.1155,4.854736328125,-20.009521484375,15.184814453125
0.116,7.497314453125,-20.489990234375,13.262939453125
0.1165,10.500244140625,-20.650146484375,10.620361328125
0.117,13.823486328125,-20.009521484375,6.736572265625
0.1175,16.946533203125,-18.447998046875,2.252197265625
0.118,19.428955078125,-16.365966796875,-2.272216796875
0.1185,20.670166015625,-14.564208984375,-5.275146484375
0.119,21.070556640625,-12.121826171875,-8.197998046875
0.1195,20.830322265625,-8.518310546875,-11.521240234375
0.12,19.829345703125,-4.194091796875,-14.804443359375
0.1205,18.387939453125,0.250244140625,-17.767333984375
0.121,16.466064453125,4.174072265625,-19.929443359375
0.1215,14.223876953125,7.016845703125,-20.489990234375
0.122,11.581298828125,9.939697265625,-21.010498046875
0.1225,7.056884765625,13.703369140625,-20.249755859375
0.123,2.052001953125,16.786376953125,-18.568115234375
0.1235,-2.752685546875,19.268798828125,-16.526123046875
0.124,-6.156005859375,20.790283203125,-14.884521484375
0.1245,-8.998779296875,21.070556640625,-12.522216796875
0.125,-12.041748046875,20.950439453125,-9.599365234375
0.1255,-15.565185546875,19.869384765625,-5.155029296875
0.126,-18.568115234375,18.027587890625,-0.350341796875
0.1265,-20.730224609375,15.905517578125,3.893798828125
0.127,-21.450927734375,13.703369140625,6.736572265625
0.1275,-21.691162109375,10.820556640625,9.899658203125
0.128,-21.130615234375,6.616455078125,13.583251953125
0.1285,-19.889404296875,2.372314453125,16.626220703125
0.129,-18.087646484375,-2.112060546875,19.268798828125
0.1295,-16.165771484375,-5.835693359375,21.150634765625
0.13,-13.563232421875,-8.718505859375,21.350830078125
0.1305,-10.400146484375,-11.721435546875,21.390869140625
0.131,-5.315185546875,-15.565185546875,20.349853515625
0.1315,0.050048828125,-18.568115234375,18.267822265625
0.132,4.414306640625,-20.489990234375,16.105712890625
0.1325,7.497314453125,-21.571044921875,14.303955078125
0.133,10.540283203125,-21.731201171875,11.581298828125
0.1335,13.823486328125,-21.090576171875,7.857666015625
0.134,17.026611328125,-19.729248046875,3.453369140625
0.1345,19.989501953125,-17.607177734375,-1.591552734375
0.135,21.711181640625,-15.565185546875,-5.315185546875
0.1355,21.911376953125,-12.962646484375,-8.197998046875
0.136,22.071533203125,-9.959716796875,-11.281005859375
0.1365,21.110595703125,-5.074951171875,-15.204833984375
0.137,19.509033203125,-0.670654296875,-18.047607421875
0.1375,17.427001953125,3.533447265625,-20.209716796875
0.138,15.425048828125,6.896728515625,-21.651123046875
0.1385,12.422119140625,9.899658203125,-21.651123046875
0.139,8.498291015625,13.262939453125,-21.290771484375
0.1395,3.573486328125,16.666259765625,-19.929443359375
0.14,-1.951904296875,19.669189453125,-17.687255859375
0.1405,-5.795654296875,21.270751953125,-15.565185546875
0.141,-8.718505859375,21.791259765625,-13.443115234375
0.1415,-11.721435546875,21.911376953125,-10.880615234375
0.142,-15.445068359375,20.750244140625,-6.115966796875
0.1425,-18.287841796875,18.908447265625,-1.791748046875
0.143,-20.770263671875,16.866455078125,2.932861328125
0.1435,-22.131591796875,14.744384765625,6.376220703125
0.144,-22.011474609375,11.781494140625,9.259033203125
0.1445,-21.931396484375,8.378173828125,12.582275390625
0.145,-20.810302734375,3.653564453125,16.225830078125
0.1455,-19.088623046875,-1.111083984375,19.228759765625
0.146,-16.886474609375,-4.914794921875,20.910400390625
0.1465,-14.764404296875,-7.957763671875,21.911376953125
0.147,-11.801513671875,-10.960693359375,21.951416015625
0.1475,-6.756591796875,-14.884521484375,20.990478515625
0.148,-2.031982421875,-17.727294921875,19.348876953125
0.1485,3.133056640625,-20.369873046875,17.146728515625
0.149,6.656494140625,-21.731201171875,15.224853515625
0.1495,9.619384765625,-21.811279296875,12.542236328125
0.15,12.542236328125,-21.931396484375,9.979736328125
0.1505,16.626220703125,-20.489990234375,4.814697265625
0.151,19.388916015625,-18.568115234375,-0.150146484375
0.1515,21.310791015625,-16.486083984375,-4.073974609375
0.152,22.431884765625,-14.243896484375,-7.237060546875
0.1525,22.191650390625,-11.040771484375,-10.280029296875
0.153,21.711181640625,-6.836669921875,-14.083740234375
0.1535,20.469970703125,-2.552490234375,-17.086669921875
0.154,18.588134765625,2.292236328125,-20.049560546875
0.1545,16.345947265625,5.975830078125,-21.531005859375
0.155,13.703369140625,8.978759765625,-21.931396484375
0.1555,10.780517578125,12.101806640625,-22.091552734375
0.156,4.814697265625,16.345947265625,-20.730224609375
0.1565,-0.190185546875,19.108642578125,-18.728271484375
0.157,-4.714599609375,21.270751953125,-16.646240234375
0.1575,-8.037841796875,22.431884765625,-14.764404296875
0.158,-11.321044921875,22.151611328125,-11.481201171875
0.1585,-14.404052734375,21.791259765625,-8.197998046875
0.159,-17.927490234375,20.269775390625,-3.353271484375
0.1595,-20.890380859375,17.947509765625,2.252197265625
0.16,-22.291748046875,15.665283203125,5.615478515625
0.1605,-22.932373046875,13.102783203125,8.818603515625
0.161,-22.772216796875,9.899658203125,11.821533203125
0.1615,-21.771240234375,4.734619140625,16.065673828125
0.162,-20.129638671875,0.370361328125,18.788330078125
0.1625,-18.207763671875,-4.154052734375,21.350830078125
0.163,-15.885498046875,-7.677490234375,22.672119140625
0.1635,-12.522216796875,-10.760498046875,22.471923828125
0.164,-9.038818359375,-14.083740234375,22.431884765625
0.1645,-3.193115234375,-17.967529296875,20.710205078125
0.165,2.532470703125,-20.850341796875,18.187744140625
0.1655,6.216064453125,-22.251708984375,16.145751953125
0.166,9.459228515625,-23.132568359375,14.023681640625
0.1665,12.782470703125,-22.892333984375,10.580322265625
0.167,16.426025390625,-21.731201171875,5.975830078125
0.1675,19.428955078125,-20.129638671875,1.371337890625
0.168,22.271728515625,-17.567138671875,-3.833740234375
0.1685,23.192626953125,-15.244873046875,-7.036865234375
0.169,23.272705078125,-12.041748046875,-10.320068359375
0.1695,23.032470703125,-8.678466796875,-13.443115234375
0.17,21.711181640625,-3.353271484375,-17.527099609375
0.1705,19.589111328125,1.571533203125,-20.249755859375
0.171,17.507080078125,5.415283203125,-22.091552734375
0.1715,15.184814453125,8.858642578125,-23.252685546875
0.172,11.260986328125,12.101806640625,-22.732177734375
0.1725,6.656494140625,15.825439453125,-21.971435546875
0.173,1.411376953125,19.188720703125,-20.289794921875
0.1735,-4.354248046875,21.911376953125,-17.567138671875
0.174,-7.557373046875,22.752197265625,-15.485107421875
0.1745,-10.880615234375,23.192626953125,-12.882568359375
0.175,-13.963623046875,22.872314453125,-9.639404296875
0.1755,-17.927490234375,21.070556640625,-4.194091796875
0.176,-20.730224609375,19.068603515625,0.770751953125
0.1765,-22.812255859375,16.706298828125,5.094970703125
0.177,-23.492919921875,14.223876953125,8.177978515625
0.1775,-23.212646484375,10.540283203125,11.621337890625
0.178,-22.692138671875,6.616455078125,15.024658203125
0.1785,-21.290771484375,1.771728515625,18.548095703125
0.179,-18.968505859375,-3.353271484375,21.310791015625
0.1795,-16.646240234375,-6.756591796875,22.471923828125
0.18,-14.243896484375,-9.959716796875,23.352783203125
0.1805,-10.280029296875,-13.242919921875,22.792236328125
0.181,-4.674560546875,-17.166748046875,21.310791015625
