wavelength,x,y,z
0.0,-0.5955810546875,-23.417846679688,23.107543945312
0.0005,4.8096923828125,-25.299682617188,19.744262695312
0.001,9.7344970703125,-27.261596679688,16.941528320312
0.0015,15.179809570312,-27.141479492188,11.496215820312
0.002,18.823364257812,-26.020385742188,6.9317626953125
0.0025,21.626098632812,-25.139526367188,3.4483642578125
0.003,24.629028320312,-22.376831054688,-2.4373779296875
0.0035,26.590942382812,-19.534057617188,-7.1619873046875
0.004,26.831176757812,-14.769409179688,-12.126831054688
0.0045,27.031372070312,-10.645385742188,-16.531127929688
0.005,25.269653320312,-5.7205810546875,-19.614135742188
0.0055,23.988403320312,-1.6365966796875,-22.456909179688
0.006,20.905395507812,3.8887939453125,-24.739135742188
0.0065,18.543090820312,8.9337158203125,-27.301635742188
0.007,12.777465820312,14.138793945312,-26.781127929688
0.0075,8.6534423828125,18.062622070312,-26.540893554688
0.008,4.4493408203125,20.625122070312,-24.939331054688
0.0085,-1.3162841796875,23.628051757812,-22.296752929688
0.009,-6.1209716796875,25.349731445312,-19.333862304688
0.0095,-11.726440429688,26.630981445312,-15.289916992188
0.01,-16.010620117188,26.510864257812,-10.885620117188
0.0105,-19.574096679688,25.109497070312,-6.1209716796875
0.011,-22.016479492188,23.948364257812,-2.5975341796875
0.0115,-24.939331054688,21.065551757812,3.1680908203125
0.012,-26.861206054688,18.062622070312,8.0528564453125
0.0125,-26.460815429688,12.657348632812,13.097778320312
0.013,-26.661010742188,9.0538330078125,16.941528320312
0.0135,-24.859252929688,4.2891845703125,19.904418945312
0.014,-23.257690429688,-0.2752685546875,22.747192382812
0.0145,-20.414916992188,-5.4403076171875,24.989379882812
0.015,-16.931518554688,-11.085815429688,27.071411132812
0.0155,-11.806518554688,-15.530151367188,26.390747070312
0.016,-7.5223388671875,-19.213745117188,25.750122070312
0.0165,-3.3582763671875,-21.495971679688,23.948364257812
0.017,2.6876220703125,-24.619018554688,21.105590820312
0.0175,7.4923095703125,-26.300659179688,18.102661132812
0.018,13.618286132812,-27.021362304688,12.937622070312
0.0185,17.101684570312,-26.661010742188,9.3341064453125
0.019,20.745239257812,-25.259643554688,4.3292236328125
0.0195,23.067504882812,-23.497924804688,0.3253173828125
0.02,25.670043945312,-20.615112304688,-5.1600341796875
0.0205,27.391723632812,-16.891479492188,-10.605346679688
0.021,26.470825195312,-11.366088867188,-15.249877929688
0.0215,26.430786132812,-7.9627685546875,-18.573120117188
0.022,24.388793945312,-3.1580810546875,-21.375854492188
0.0225,22.346801757812,1.9268798828125,-24.298706054688
0.023,19.343872070312,6.9317626953125,-26.220581054688
0.0235,14.739379882812,13.297973632812,-27.822143554688
0.024,9.9346923828125,16.901489257812,-26.620971679688
0.0245,5.4102783203125,20.424926757812,-25.740112304688
0.025,0.8858642578125,22.426879882812,-23.257690429688
0.0255,-4.9598388671875,25.309692382812,-20.575073242188
0.026,-10.084838867188,26.751098632812,-16.931518554688
0.0265,-15.690307617188,26.871215820312,-11.526245117188
0.027,-18.573120117188,26.190551757812,-8.1629638671875
0.0275,-22.176635742188,24.468872070312,-2.9979248046875
0.028,-24.418823242188,22.106567382812,1.6466064453125
0.0285,-26.460815429688,19.223754882812,6.5313720703125
0.029,-27.902221679688,14.659301757812,12.537231445312
0.0295,-26.500854492188,9.4141845703125,16.380981445312
0.03,-26.220581054688,5.8907470703125,19.584106445312
0.0305,-23.778198242188,0.8858642578125,22.186645507812
0.031,-21.736206054688,-4.2791748046875,25.189575195312
0.0315,-18.212768554688,-9.2840576171875,26.550903320312
0.032,-13.287963867188,-15.410034179688,27.671997070312
0.0325,-8.8436279296875,-18.332885742188,26.150512695312
0.033,-4.1190185546875,-21.856323242188,24.989379882812
0.0335,0.8858642578125,-23.698120117188,21.946411132812
0.034,6.0909423828125,-26.300659179688,19.544067382812
0.0345,11.976684570312,-27.301635742188,14.819458007812
0.035,16.741333007812,-26.901245117188,9.8946533203125
0.0355,19.664184570312,-26.260620117188,6.4112548828125
0.036,23.027465820312,-24.218627929688,1.0460205078125
0.0365,25.269653320312,-21.656127929688,-3.7186279296875
0.037,26.711059570312,-18.453002929688,-8.3231201171875
0.0375,27.792114257812,-13.448120117188,-14.409057617188
0.038,26.150512695312,-8.6033935546875,-17.652221679688
0.0385,25.670043945312,-4.8797607421875,-20.855346679688
0.039,22.867309570312,0.3253173828125,-23.177612304688
0.0395,20.945434570312,5.2501220703125,-26.140502929688
0.04,16.421020507812,10.615356445312,-26.901245117188
0.0405,11.656372070312,16.180786132812,-27.702026367188
0.041,7.3721923828125,18.943481445312,-26.140502929688
0.0415,2.0870361328125,22.346801757812,-24.458862304688
0.042,-3.0379638671875,24.188598632812,-21.215698242188
0.0425,-7.7625732421875,26.510864257812,-18.893432617188
0.043,-13.888549804688,27.071411132812,-13.568237304688
0.0435,-17.772338867188,26.150512695312,-8.9237060546875
0.044,-20.775268554688,25.589965820312,-5.4403076171875
0.0445,-23.858276367188,22.947387695312,0.2452392578125
0.045,-26.100463867188,20.304809570312,5.0899658203125
0.0455,-26.901245117188,16.340942382812,9.8546142578125
0.046,-27.661987304688,11.576293945312,15.380004882812
0.0465,-25.900268554688,6.7716064453125,18.422973632812
0.047,-25.059448242188,2.6876220703125,21.666137695312
0.0475,-22.016479492188,-2.6375732421875,23.828247070312
0.048,-20.054565429688,-7.5623779296875,26.711059570312
0.0485,-14.689331054688,-13.047729492188,26.751098632812
0.049,-10.285034179688,-17.612182617188,26.911254882812
0.0495,-6.1610107421875,-20.294799804688,25.429809570312
0.05,-0.5155029296875,-23.377807617188,23.067504882812
0.0505,4.6495361328125,-25.259643554688,19.864379882812
0.051,9.6544189453125,-26.981323242188,16.781372070312
0.0515,15.380004882812,-27.421752929688,11.696411132812
0.052,18.863403320312,-25.940307617188,6.8516845703125
0.0525,21.746215820312,-25.299682617188,3.4483642578125
0.053,24.468872070312,-22.336791992188,-2.2772216796875
0.0535,26.671020507812,-19.734252929688,-7.0819091796875
0.054,26.751098632812,-14.809448242188,-12.046752929688
0.0545,27.271606445312,-10.605346679688,-16.771362304688
0.055,25.429809570312,-5.8807373046875,-19.614135742188
0.0555,24.148559570312,-1.4764404296875,-22.737182617188
0.056,21.065551757812,3.8487548828125,-24.859252929688
0.0565,18.543090820312,9.0938720703125,-27.541870117188
0.057,12.857543945312,14.539184570312,-27.261596679688
0.0575,8.4532470703125,18.503051757812,-26.821166992188
0.058,4.4893798828125,21.065551757812,-25.339721679688
0.0585,-1.5565185546875,24.068481445312,-22.536987304688
0.059,-6.4012451171875,25.910278320312,-19.614135742188
0.0595,-12.206909179688,27.031372070312,-15.129760742188
0.06,-16.691284179688,27.231567382812,-11.005737304688
0.0605,-20.214721679688,25.469848632812,-5.8406982421875
0.061,-22.857299804688,24.348754882812,-2.1971435546875
0.0615,-25.619995117188,21.145629882812,3.7686767578125
0.062,-27.661987304688,18.182739257812,8.8135986328125
0.0625,-27.101440429688,12.457153320312,13.978637695312
0.063,-27.341674804688,8.7735595703125,17.902465820312
0.0635,-25.339721679688,3.9688720703125,20.665161132812
0.064,-23.618041992188,-0.9158935546875,23.668090820312
0.0645,-20.494995117188,-6.1610107421875,25.750122070312
0.065,-16.691284179688,-12.046752929688,27.752075195312
0.0655,-11.566284179688,-16.611206054688,27.071411132812
0.066,-6.9217529296875,-20.174682617188,26.110473632812
0.0665,-2.8778076171875,-22.256713867188,24.228637695312
0.067,3.4083251953125,-25.259643554688,21.105590820312
0.0675,8.2530517578125,-26.861206054688,18.022583007812
0.068,14.419067382812,-27.301635742188,12.457153320312
0.0685,17.822387695312,-27.141479492188,9.0938720703125
0.069,21.225708007812,-25.299682617188,3.9288330078125
0.0695,23.547973632812,-23.578002929688,-0.1151123046875
0.07,25.910278320312,-20.374877929688,-5.6405029296875
0.0705,27.671997070312,-16.731323242188,-11.045776367188
0.071,26.550903320312,-11.045776367188,-15.570190429688
0.0715,26.510864257812,-7.5623779296875,-19.013549804688
0.072,24.348754882812,-3.1180419921875,-21.335815429688
0.0725,22.346801757812,1.9268798828125,-24.298706054688
0.073,19.183715820312,6.9317626953125,-26.100463867188
0.0735,14.499145507812,13.137817382812,-27.581909179688
0.074,10.094848632812,16.821411132812,-26.741088867188
0.0745,5.3702392578125,20.264770507812,-25.459838867188
0.075,1.2862548828125,22.066528320312,-23.217651367188
0.0755,-4.5194091796875,24.909301757812,-20.454956054688
0.076,-9.7645263671875,26.430786132812,-16.931518554688
0.0765,-15.249877929688,26.310668945312,-11.486206054688
0.077,-18.252807617188,26.070434570312,-8.3231201171875
0.0775,-21.415893554688,24.188598632812,-3.4783935546875
0.078,-23.818237304688,22.106567382812,1.0460205078125
0.0785,-25.780151367188,19.103637695312,6.0108642578125
0.079,-27.341674804688,14.699340820312,11.976684570312
0.0795,-26.140502929688,9.6544189453125,15.740356445312
0.08,-25.860229492188,6.0108642578125,19.183715820312
0.0805,-23.658081054688,1.5264892578125,21.385864257812
0.081,-21.776245117188,-3.6385498046875,24.508911132812
0.0815,-18.172729492188,-8.9237060546875,26.070434570312
0.082,-13.207885742188,-14.809448242188,27.031372070312
0.0825,-9.2840576171875,-17.852416992188,26.190551757812
0.083,-4.3592529296875,-21.255737304688,24.629028320312
0.0835,0.3253173828125,-23.097534179688,21.906372070312
0.084,5.5704345703125,-25.700073242188,19.504028320312
0.0845,11.776489257812,-27.061401367188,14.779418945312
0.085,16.380981445312,-26.580932617188,9.8546142578125
0.0855,19.463989257812,-26.220581054688,6.5313720703125
0.086,22.546997070312,-23.978393554688,1.3262939453125
0.0865,25.029418945312,-21.656127929688,-3.4783935546875
0.087,26.390747070312,-18.252807617188,-8.2830810546875
0.0875,27.551879882812,-13.328002929688,-14.409057617188
0.088,26.150512695312,-8.6033935546875,-17.652221679688
0.0885,25.549926757812,-4.7196044921875,-21.015502929688
0.089,22.747192382812,0.2852783203125,-23.057495117188
0.0895,20.785278320312,5.2501220703125,-26.140502929688
0.09,16.060668945312,11.095825195312,-27.061401367188
0.0905,11.215942382812,16.501098632812,-27.501831054688
0.091,7.2921142578125,19.263793945312,-26.380737304688
0.0915,1.8468017578125,22.546997070312,-24.258666992188
0.092,-3.2381591796875,24.348754882812,-21.175659179688
0.0925,-8.0028076171875,26.390747070312,-18.613159179688
0.093,-14.369018554688,27.231567382812,-13.287963867188
0.0935,-18.052612304688,26.070434570312,-8.5633544921875
0.094,-21.095581054688,25.589965820312,-5.1600341796875
0.0945,-23.898315429688,22.707153320312,0.5655517578125
0.095,-26.220581054688,20.184692382812,5.3302001953125
0.0955,-26.861206054688,15.980590820312,10.134887695312
0.096,-27.581909179688,11.175903320312,15.660278320312
0.0965,-25.980346679688,6.6514892578125,18.623168945312
0.097,-24.979370117188,2.2872314453125,21.866333007812
0.0975,-21.936401367188,-2.7576904296875,23.748168945312
0.098,-19.974487304688,-7.5223388671875,26.590942382812
0.0985,-14.569213867188,-13.287963867188,26.871215820312
0.099,-9.9246826171875,-17.692260742188,26.630981445312
0.0995,-6.2010498046875,-20.294799804688,25.589965820312
0.1,-0.3953857421875,-23.297729492188,22.787231445312
0.1005,4.5694580078125,-25.139526367188,19.904418945312
0.101,9.5743408203125,-26.661010742188,16.541137695312
0.1015,15.380004882812,-27.421752929688,11.656372070312
0.102,18.743286132812,-25.780151367188,6.8516845703125
0.1025,21.706176757812,-25.259643554688,3.4083251953125
0.103,24.148559570312,-22.136596679688,-2.1170654296875
0.1035,26.390747070312,-19.734252929688,-6.7615966796875
0.104,26.390747070312,-14.729370117188,-11.806518554688
0.1045,26.911254882812,-10.525268554688,-16.571166992188
0.105,25.389770507812,-6.2410888671875,-19.293823242188
0.1055,23.868286132812,-1.5965576171875,-22.456909179688
0.106,20.985473632812,3.4483642578125,-24.378784179688
0.1065,18.342895507812,8.6534423828125,-26.861206054688
0.107,13.017700195312,14.138793945312,-27.021362304688
0.1075,8.2930908203125,18.102661132812,-26.220581054688
0.108,4.7696533203125,20.625122070312,-25.259643554688
0.1085,-1.3162841796875,23.427856445312,-22.136596679688
0.109,-5.9207763671875,25.389770507812,-19.534057617188
0.1095,-11.606323242188,26.230590820312,-14.889526367188
0.11,-16.210815429688,26.831176757812,-10.965698242188
0.1105,-19.574096679688,25.069458007812,-6.1209716796875
0.111,-22.376831054688,23.988403320312,-2.2772216796875
0.1115,-24.819213867188,20.785278320312,3.3282470703125
0.112,-26.981323242188,18.062622070312,8.2530517578125
0.1125,-26.420776367188,12.457153320312,13.257934570312
0.113,-26.620971679688,8.5733642578125,17.341918945312
0.1135,-25.179565429688,4.3692626953125,20.024536132812
0.114,-23.137573242188,-0.7557373046875,23.067504882812
0.1145,-20.214721679688,-5.6405029296875,25.029418945312
0.115,-16.370971679688,-11.406127929688,26.831176757812
0.1155,-11.766479492188,-15.970581054688,26.751098632812
0.116,-6.8016357421875,-19.574096679688,25.469848632812
0.1165,-3.0780029296875,-21.816284179688,24.028442382812
0.117,3.0479736328125,-24.538940429688,20.745239257812
0.1175,7.8526611328125,-26.420776367188,17.982543945312
0.118,13.818481445312,-26.620971679688,12.296997070312
0.1185,17.462036132812,-26.821166992188,9.0938720703125
0.119,20.825317382812,-25.139526367188,4.1690673828125
0.1195,23.347778320312,-23.377807617188,-0.0750732421875
0.12,25.469848632812,-20.134643554688,-5.4002685546875
0.1205,27.311645507812,-16.651245117188,-10.805541992188
0.121,26.350708007812,-11.245971679688,-15.329956054688
0.1215,26.190551757812,-7.4022216796875,-19.013549804688
0.122,24.508911132812,-3.3182373046875,-21.295776367188
0.1225,22.186645507812,2.1671142578125,-24.338745117188
0.123,19.183715820312,7.0518798828125,-26.180541992188
0.1235,14.218872070312,13.297973632812,-27.381713867188
0.124,10.214965820312,17.021606445312,-27.021362304688
0.1245,5.0899658203125,20.625122070312,-25.499877929688
0.125,1.0059814453125,22.546997070312,-23.417846679688
0.1255,-4.8397216796875,25.109497070312,-20.374877929688
0.126,-10.285034179688,26.871215820312,-16.811401367188
0.1265,-15.690307617188,26.470825195312,-11.205932617188
0.127,-18.933471679688,26.350708007812,-8.0028076171875
0.1275,-22.096557617188,24.468872070312,-3.0780029296875
0.128,-24.659057617188,22.226684570312,1.7667236328125
0.1285,-26.260620117188,18.903442382812,6.6514892578125
0.129,-27.742065429688,14.338989257812,12.697387695312
0.1295,-26.620971679688,9.3741455078125,16.421020507812
0.13,-25.980346679688,5.3702392578125,19.944458007812
0.1305,-23.898315429688,1.0460205078125,22.106567382812
0.131,-21.656127929688,-4.3592529296875,25.109497070312
0.1315,-17.932495117188,-9.6444091796875,26.630981445312
0.132,-12.687377929688,-15.450073242188,27.191528320312
0.1325,-8.9637451171875,-18.533081054688,26.510864257812
0.133,-3.6385498046875,-21.936401367188,24.629028320312
0.1335,1.0860595703125,-23.818237304688,21.946411132812
0.134,6.1309814453125,-25.940307617188,19.183715820312
0.1345,12.417114257812,-27.421752929688,14.499145507812
0.135,16.741333007812,-26.460815429688,9.4141845703125
0.1355,19.984497070312,-26.140502929688,6.0108642578125
0.136,22.787231445312,-23.898315429688,1.0460205078125
0.1365,25.309692382812,-21.536010742188,-3.8787841796875
0.137,26.270629882812,-17.932495117188,-8.4832763671875
0.1375,27.231567382812,-13.007690429688,-14.489135742188
0.138,25.990356445312,-8.5633544921875,-17.572143554688
0.1385,25.149536132812,-4.3192138671875,-20.975463867188
0.139,22.707153320312,0.1251220703125,-22.817260742188
0.1395,20.545043945312,5.0899658203125,-25.619995117188
0.14,15.940551757812,10.895629882812,-26.781127929688
0.1405,10.895629882812,16.020629882812,-26.741088867188
0.141,7.4122314453125,18.863403320312,-26.100463867188
0.1415,1.9669189453125,21.906372070312,-23.778198242188
0.142,-2.8377685546875,23.948364257812,-21.135620117188
0.1425,-7.3221435546875,25.549926757812,-18.372924804688
0.143,-13.768432617188,26.751098632812,-13.368041992188
0.1435,-17.211791992188,25.469848632812,-8.7635498046875
0.144,-20.575073242188,25.189575195312,-5.2000732421875
0.1445,-23.057495117188,22.506958007812,-0.1951904296875
0.145,-25.539916992188,20.184692382812,4.6495361328125
0.1455,-26.140502929688,15.940551757812,9.4542236328125
0.146,-26.781127929688,11.175903320312,14.899536132812
0.1465,-25.660034179688,7.1719970703125,17.862426757812
0.147,-24.458862304688,2.4473876953125,21.305786132812
0.1475,-21.936401367188,-2.1170654296875,23.267700195312
0.148,-19.774291992188,-6.9217529296875,25.790161132812
0.1485,-14.649291992188,-12.847534179688,26.550903320312
0.149,-9.9246826171875,-17.051635742188,25.990356445312
0.1495,-6.4012451171875,-19.974487304688,25.429809570312
0.15,-0.6356201171875,-22.897338867188,22.667114257812
0.1505,4.3292236328125,-25.019409179688,20.024536132812
0.151,9.2540283203125,-26.140502929688,16.300903320312
0.1515,15.179809570312,-27.221557617188,11.656372070312
0.152,18.503051757812,-25.619995117188,6.8917236328125
0.1525,21.826293945312,-25.099487304688,3.1680908203125
0.153,24.188598632812,-22.176635742188,-2.1971435546875
0.1535,26.470825195312,-19.734252929688,-7.0018310546875
0.154,26.390747070312,-14.489135742188,-12.046752929688
0.1545,26.791137695312,-10.084838867188,-16.811401367188
0.155,25.549926757812,-6.0809326171875,-19.574096679688
0.1555,23.748168945312,-0.9559326171875,-22.857299804688
0.156,20.985473632812,3.9688720703125,-24.899291992188
0.1565,17.942504882812,9.1339111328125,-26.941284179688
0.157,12.777465820312,14.739379882812,-27.341674804688
0.1575,7.7725830078125,18.543090820312,-26.140502929688
0.158,4.1690673828125,21.265747070312,-25.259643554688
0.1585,-1.9569091796875,23.988403320312,-22.056518554688
0.159,-6.6815185546875,25.990356445312,-19.494018554688
0.1595,-12.206909179688,26.230590820312,-14.369018554688
0.16,-16.811401367188,26.951293945312,-10.685424804688
0.1605,-20.094604492188,25.029418945312,-5.6405029296875
0.161,-23.097534179688,23.868286132812,-1.4764404296875
0.1615,-25.299682617188,20.585083007812,3.8887939453125
0.162,-27.261596679688,17.742309570312,8.8536376953125
0.1625,-26.620971679688,12.096801757812,13.778442382812
0.163,-26.580932617188,7.9727783203125,17.862426757812
0.1635,-25.259643554688,4.1290283203125,20.464965820312
0.164,-22.977416992188,-1.3963623046875,23.547973632812
0.1645,-20.254760742188,-6.0408935546875,25.469848632812
0.165,-16.010620117188,-11.606323242188,26.711059570312
0.1655,-11.726440429688,-16.170776367188,26.911254882812
0.166,-6.4813232421875,-19.734252929688,25.269653320312
0.1665,-2.7576904296875,-22.096557617188,23.988403320312
0.167,3.3282470703125,-24.659057617188,20.625122070312
0.1675,8.0128173828125,-26.620971679688,18.062622070312
0.168,13.778442382812,-26.300659179688,12.136840820312
0.1685,17.502075195312,-26.781127929688,8.9737548828125
0.169,20.745239257812,-25.099487304688,4.2091064453125
0.1695,23.427856445312,-23.377807617188,-0.3153076171875
0.17,25.349731445312,-20.054565429688,-5.3602294921875
0.1705,26.991333007812,-16.491088867188,-10.565307617188
0.171,26.190551757812,-11.286010742188,-15.009643554688
0.1715,25.790161132812,-7.0819091796875,-18.773315429688
0.172,24.468872070312,-3.4783935546875,-21.095581054688
0.1725,22.026489257812,2.2071533203125,-24.178588867188
0.173,19.223754882812,6.9317626953125,-26.100463867188
0.1735,14.018676757812,12.897583007812,-26.741088867188
0.174,10.375122070312,16.661254882812,-26.861206054688
0.1745,5.0899658203125,20.224731445312,-25.139526367188
0.175,0.9659423828125,22.426879882812,-23.257690429688
0.1755,-4.7596435546875,24.829223632812,-20.174682617188
0.176,-10.124877929688,26.751098632812,-16.851440429688
0.1765,-15.209838867188,25.950317382812,-11.245971679688
0.177,-18.653198242188,25.910278320312,-7.8826904296875
0.1775,-21.736206054688,24.268676757812,-3.2781982421875
0.178,-24.538940429688,22.106567382812,1.7667236328125
