wavelength,x,y,z
0.0,2.5224609375,0.640625,-3.603515625
0.0005,2.08203125,1.3212890625,-3.923828125
0.001,1.4814453125,2.2421875,-4.1640625
0.0015,0.80078125,2.5625,-3.7236328125
0.002,0.1201171875,3.203125,-3.7236328125
0.0025,-0.720703125,3.36328125,-3.0830078125
0.003,-1.44140625,3.763671875,-2.72265625
0.0035,-2.40234375,3.923828125,-1.9619140625
0.004,-3.04296875,4.0439453125,-1.44140625
0.0045,-3.36328125,3.5634765625,-0.6806640625
0.005,-3.8037109375,3.5234375,-0.2001953125
0.0055,-3.923828125,2.8427734375,0.640625
0.006,-4.1640625,2.5224609375,1.201171875
0.0065,-4.4443359375,1.8017578125,2.162109375
0.007,-4.1640625,1.1611328125,2.482421875
0.0075,-3.923828125,0.240234375,3.203125
0.008,-3.36328125,-0.640625,3.4833984375
0.0085,-2.9228515625,-1.4814453125,3.8037109375
0.009,-2.322265625,-2.2822265625,3.923828125
0.0095,-1.7216796875,-3.0830078125,4.1240234375
0.01,-0.880859375,-3.36328125,3.5634765625
0.0105,-0.3203125,-3.9638671875,3.6435546875
0.011,0.640625,-4.083984375,2.802734375
0.0115,1.3212890625,-4.4443359375,2.5224609375
0.012,2.3623046875,-4.64453125,1.6416015625
0.0125,2.802734375,-4.484375,1.12109375
0.013,3.203125,-4.1240234375,0.3203125
0.0135,3.4833984375,-3.84375,-0.240234375
0.014,3.6435546875,-3.203125,-1.0009765625
0.0145,3.8037109375,-2.72265625,-1.6416015625
0.015,4.0439453125,-2.0419921875,-2.5625
0.0155,3.5234375,-1.1611328125,-2.8427734375
0.016,3.4033203125,-0.400390625,-3.5234375
0.0165,2.6826171875,0.48046875,-3.6435546875
0.017,2.2822265625,1.201171875,-4.00390625
0.0175,1.5615234375,2.162109375,-4.1240234375
0.018,0.9609375,2.802734375,-4.1240234375
0.0185,0.080078125,3.123046875,-3.5634765625
0.019,-0.560546875,3.6435546875,-3.4833984375
0.0195,-1.6015625,3.763671875,-2.5625
0.02,-2.2421875,4.00390625,-2.2421875
0.0205,-3.203125,4.1640625,-1.44140625
0.021,-3.4833984375,3.763671875,-0.720703125
0.0215,-3.923828125,3.5634765625,-0.1201171875
0.022,-4.083984375,3.04296875,0.6005859375
0.0225,-4.244140625,2.482421875,1.3212890625
0.023,-4.32421875,1.841796875,1.9619140625
0.0235,-4.5244140625,1.2412109375,2.7626953125
0.024,-3.8037109375,0.16015625,3.123046875
0.0245,-3.8037109375,-0.560546875,3.68359375
0.025,-2.8427734375,-1.5615234375,3.7236328125
0.0255,-2.5224609375,-2.162109375,4.083984375
0.026,-1.7216796875,-3.0830078125,4.1240234375
0.0265,-1.0009765625,-3.5634765625,3.923828125
0.027,-0.240234375,-3.9638671875,3.5234375
0.0275,0.5205078125,-4.3642578125,3.203125
0.028,1.5615234375,-4.5244140625,2.3623046875
0.0285,2.162109375,-4.724609375,1.921875
0.029,3.0830078125,-4.8447265625,1.201171875
0.0295,3.283203125,-4.244140625,0.3603515625
0.03,3.763671875,-4.1240234375,-0.2001953125
0.0305,3.84375,-3.36328125,-1.041015625
0.031,4.00390625,-2.8427734375,-1.76171875
0.0315,4.083984375,-2.08203125,-2.5224609375
0.032,4.083984375,-1.44140625,-3.203125
0.0325,3.3232421875,-0.3203125,-3.5234375
0.033,3.1630859375,0.2802734375,-4.00390625
0.0335,2.162109375,1.521484375,-4.0439453125
0.034,1.841796875,2.08203125,-4.2841796875
0.0345,0.9609375,3.0029296875,-4.32421875
0.035,0.080078125,3.443359375,-3.84375
0.0355,-0.640625,3.8037109375,-3.5234375
0.036,-1.6416015625,4.1240234375,-2.9228515625
0.0365,-2.6025390625,4.2841796875,-2.08203125
0.037,-3.1630859375,4.32421875,-1.521484375
0.0375,-3.923828125,4.32421875,-0.80078125
0.038,-4.1240234375,3.5634765625,0.080078125
0.0385,-4.484375,3.4833984375,0.6005859375
0.039,-4.5244140625,2.40234375,1.6015625
0.0395,-4.64453125,2.001953125,2.162109375
0.04,-4.5244140625,1.12109375,2.9228515625
0.0405,-4.3642578125,0.3203125,3.443359375
0.041,-3.5634765625,-0.80078125,3.7236328125
0.0415,-3.2431640625,-1.44140625,4.1240234375
0.042,-2.2421875,-2.6025390625,4.1640625
0.0425,-1.841796875,-3.0830078125,4.244140625
0.043,-1.0009765625,-3.8837890625,4.1640625
0.0435,-0.080078125,-4.1640625,3.603515625
0.044,0.6005859375,-4.564453125,3.3232421875
0.0445,1.7216796875,-4.8046875,2.482421875
0.045,2.482421875,-4.96484375,1.841796875
0.0455,3.0830078125,-4.8447265625,1.1611328125
0.046,3.68359375,-4.7646484375,0.48046875
0.0465,3.84375,-4.00390625,-0.400390625
0.047,4.1640625,-3.84375,-0.9208984375
0.0475,4.2041015625,-2.72265625,-2.0419921875
0.048,4.32421875,-2.322265625,-2.5224609375
0.0485,4.244140625,-1.44140625,-3.36328125
0.049,3.8037109375,-0.6005859375,-3.84375
0.0495,3.1630859375,0.48046875,-4.083984375
0.05,2.642578125,1.3212890625,-4.404296875
0.0505,1.681640625,2.482421875,-4.5244140625
0.051,1.201171875,2.9228515625,-4.484375
0.0515,0.240234375,3.8037109375,-4.3642578125
0.052,-0.7607421875,4.00390625,-3.6435546875
0.0525,-1.44140625,4.404296875,-3.36328125
0.053,-2.72265625,4.564453125,-2.2421875
0.0535,-3.443359375,4.6044921875,-1.6015625
0.054,-4.00390625,4.3642578125,-0.80078125
0.0545,-4.5244140625,4.1240234375,0.0
0.055,-4.564453125,3.3232421875,0.80078125
0.0555,-4.8447265625,2.962890625,1.4013671875
0.056,-4.96484375,1.76171875,2.5224609375
0.0565,-4.7646484375,1.28125,2.8828125
0.057,-4.564453125,0.3203125,3.6435546875
0.0575,-3.8837890625,-0.640625,3.9638671875
0.058,-3.36328125,-1.521484375,4.2841796875
0.0585,-2.5625,-2.5224609375,4.404296875
0.059,-1.8017578125,-3.443359375,4.5244140625
0.0595,-1.0810546875,-3.8037109375,4.2041015625
0.06,-0.240234375,-4.484375,4.083984375
0.0605,0.640625,-4.564453125,3.2431640625
0.061,1.3212890625,-4.96484375,3.0029296875
0.0615,2.6025390625,-5.044921875,1.841796875
0.062,3.123046875,-5.044921875,1.3212890625
0.0625,3.6435546875,-4.724609375,0.48046875
0.063,4.083984375,-4.4443359375,-0.2001953125
0.0635,4.1240234375,-3.68359375,-1.0009765625
0.064,4.32421875,-3.1630859375,-1.5615234375
0.0645,4.4443359375,-2.3623046875,-2.6826171875
0.065,4.1640625,-1.76171875,-3.0029296875
0.0655,4.1240234375,-0.80078125,-3.84375
0.066,3.2431640625,0.2802734375,-4.00390625
0.0665,2.8828125,1.0810546875,-4.3642578125
0.067,1.9619140625,2.1220703125,-4.5244140625
0.0675,1.361328125,2.962890625,-4.6845703125
0.068,0.5205078125,3.36328125,-4.244140625
0.0685,-0.3203125,4.083984375,-4.1240234375
0.069,-1.28125,4.1240234375,-3.2431640625
0.0695,-2.001953125,4.484375,-2.9228515625
0.07,-3.283203125,4.6845703125,-1.8017578125
0.0705,-3.8037109375,4.5244140625,-1.2412109375
0.071,-4.32421875,4.1640625,-0.3203125
0.0715,-4.64453125,3.763671875,0.4404296875
0.072,-4.64453125,3.123046875,1.12109375
0.0725,-4.8447265625,2.3623046875,1.9619140625
0.073,-5.0048828125,1.5615234375,2.962890625
0.0735,-4.5244140625,0.7607421875,3.2431640625
0.074,-4.4443359375,-0.16015625,4.00390625
0.0745,-3.4833984375,-1.28125,4.1240234375
0.075,-3.0830078125,-1.9619140625,4.4443359375
0.0755,-2.0419921875,-3.0830078125,4.484375
0.076,-1.4013671875,-3.8037109375,4.484375
0.0765,-0.48046875,-4.1640625,3.9638671875
0.077,0.240234375,-4.6845703125,3.8037109375
0.0775,1.1611328125,-4.6845703125,2.9228515625
0.078,1.921875,-5.0048828125,2.4423828125
0.0785,3.123046875,-5.1650390625,1.44140625
0.079,3.4033203125,-4.8447265625,0.80078125
0.0795,3.923828125,-4.5244140625,0.0400390625
0.08,4.00390625,-4.00390625,-0.80078125
0.0805,4.1640625,-3.443359375,-1.361328125
0.081,4.1640625,-2.72265625,-2.2822265625
0.0815,4.4443359375,-1.9619140625,-3.0029296875
0.082,3.84375,-1.041015625,-3.283203125
0.0825,3.763671875,-0.2802734375,-4.00390625
0.083,2.7626953125,0.80078125,-4.0439453125
0.0835,2.5224609375,1.44140625,-4.404296875
0.084,1.521484375,2.5625,-4.5244140625
0.0845,0.9609375,3.123046875,-4.4443359375
0.085,0.0,3.6435546875,-3.9638671875
0.0855,-0.7607421875,4.083984375,-3.68359375
0.086,-1.681640625,4.2041015625,-2.9228515625
0.0865,-2.5224609375,4.484375,-2.40234375
0.087,-3.6435546875,4.6845703125,-1.4814453125
0.0875,-3.8837890625,4.1640625,-0.7607421875
0.088,-4.5244140625,4.00390625,0.0400390625
0.0885,-4.564453125,3.2431640625,0.7607421875
0.089,-4.7646484375,2.8828125,1.521484375
0.0895,-4.8046875,1.921875,2.40234375
0.09,-4.9248046875,1.28125,3.123046875
0.0905,-4.2041015625,0.2001953125,3.5234375
0.091,-4.083984375,-0.640625,4.1240234375
0.0915,-3.0830078125,-1.681640625,4.1240234375
0.092,-2.6826171875,-2.3623046875,4.404296875
0.0925,-1.681640625,-3.4833984375,4.484375
0.093,-1.0009765625,-3.8837890625,4.1240234375
0.0935,-0.1201171875,-4.3642578125,3.8037109375
0.094,0.640625,-4.64453125,3.3232421875
0.0945,1.5615234375,-4.7646484375,2.5625
0.095,2.40234375,-4.9248046875,1.921875
0.0955,3.3232421875,-5.0849609375,1.12109375
0.096,3.4833984375,-4.3642578125,0.3203125
0.0965,3.9638671875,-4.3642578125,-0.2802734375
0.097,4.00390625,-3.4833984375,-1.12109375
0.0975,4.083984375,-3.04296875,-1.6416015625
0.098,4.1240234375,-2.162109375,-2.5625
0.0985,4.083984375,-1.5615234375,-3.0830078125
0.099,3.5234375,-0.5205078125,-3.5234375
0.0995,3.2431640625,0.2001953125,-3.8837890625
0.1,2.40234375,1.12109375,-4.00390625
0.1005,2.0419921875,1.8017578125,-4.2041015625
0.101,1.28125,2.802734375,-4.4443359375
0.1015,0.4404296875,3.0830078125,-3.923828125
0.102,-0.2802734375,3.7236328125,-3.84375
0.1025,-1.1611328125,3.8837890625,-3.0830078125
0.103,-1.921875,4.1640625,-2.642578125
0.1035,-2.8427734375,4.32421875,-1.8818359375
0.104,-3.5634765625,4.404296875,-1.28125
0.1045,-3.84375,3.763671875,-0.3603515625
0.105,-4.32421875,3.68359375,0.1201171875
0.1055,-4.4443359375,2.8427734375,1.0810546875
0.106,-4.6044921875,2.4423828125,1.6416015625
0.1065,-4.7646484375,1.5615234375,2.6826171875
0.107,-4.4443359375,0.880859375,3.0830078125
0.1075,-4.00390625,-0.240234375,3.6435546875
0.108,-3.5234375,-1.041015625,3.9638671875
0.1085,-2.7626953125,-1.9619140625,4.1240234375
0.109,-2.2421875,-2.72265625,4.2841796875
0.1095,-1.44140625,-3.603515625,4.3642578125
0.11,-0.5205078125,-3.84375,3.68359375
0.1105,0.080078125,-4.404296875,3.68359375
0.111,1.12109375,-4.5244140625,2.72265625
0.1115,1.8017578125,-4.7646484375,2.2822265625
0.112,2.72265625,-4.8447265625,1.44140625
0.1125,3.203125,-4.724609375,0.80078125
0.113,3.4833984375,-4.1640625,0.0
0.1135,3.763671875,-3.8837890625,-0.48046875
0.114,3.84375,-3.04296875,-1.3212890625
0.1145,3.8837890625,-2.6025390625,-1.8818359375
0.115,4.1240234375,-1.8818359375,-2.7626953125
0.1155,3.5234375,-1.0009765625,-3.0830078125
0.116,3.3232421875,-0.2001953125,-3.6435546875
0.1165,2.642578125,0.640625,-3.763671875
0.117,2.2021484375,1.4013671875,-4.00390625
0.1175,1.5615234375,2.2021484375,-4.1640625
0.118,0.9208984375,2.8427734375,-4.1640625
0.1185,0.0,3.1630859375,-3.5634765625
0.119,-0.560546875,3.68359375,-3.5634765625
0.1195,-1.6015625,3.8037109375,-2.6025390625
0.12,-2.2021484375,4.083984375,-2.322265625
0.1205,-3.1630859375,4.1240234375,-1.521484375
0.121,-3.5234375,3.84375,-0.8408203125
0.1215,-3.923828125,3.5634765625,-0.1201171875
0.122,-4.1240234375,3.1630859375,0.48046875
0.1225,-4.32421875,2.5224609375,1.28125
0.123,-4.3642578125,1.9619140625,1.921875
0.1235,-4.564453125,1.3212890625,2.72265625
0.124,-3.8837890625,0.2802734375,3.04296875
0.1245,-3.84375,-0.4404296875,3.68359375
0.125,-2.9228515625,-1.44140625,3.763671875
0.1255,-2.6025390625,-2.1220703125,4.083984375
0.126,-1.8017578125,-2.962890625,4.1240234375
0.1265,-1.12109375,-3.5234375,3.9638671875
0.127,-0.3203125,-3.84375,3.4833984375
0.1275,0.400390625,-4.2841796875,3.2431640625
0.128,1.4814453125,-4.4443359375,2.2822265625
0.1285,1.9619140625,-4.64453125,1.9619140625
0.129,2.8427734375,-4.7646484375,1.2412109375
0.1295,3.04296875,-4.1640625,0.48046875
0.13,3.443359375,-3.9638671875,0.0
0.1305,3.5234375,-3.3232421875,-0.80078125
0.131,3.763671875,-2.8828125,-1.4814453125
0.1315,3.763671875,-2.2021484375,-2.1220703125
0.132,3.84375,-1.6015625,-2.7626953125
0.1325,3.123046875,-0.5205078125,-3.0830078125
0.133,3.0830078125,0.080078125,-3.603515625
0.1335,2.162109375,1.0810546875,-3.68359375
0.134,1.9619140625,1.6015625,-4.00390625
0.1345,1.201171875,2.4423828125,-4.00390625
0.135,0.4404296875,2.8427734375,-3.68359375
0.1355,-0.240234375,3.2431640625,-3.4033203125
0.136,-1.0810546875,3.5634765625,-2.962890625
0.1365,-1.9619140625,3.8037109375,-2.2822265625
0.137,-2.5625,3.8837890625,-1.8818359375
0.1375,-3.203125,4.00390625,-1.2412109375
0.138,-3.4833984375,3.443359375,-0.4404296875
0.1385,-3.8837890625,3.443359375,0.0400390625
0.139,-4.00390625,2.5625,0.9208984375
0.1395,-4.244140625,2.2822265625,1.4814453125
0.14,-4.244140625,1.521484375,2.2421875
0.1405,-4.1640625,0.880859375,2.7626953125
0.141,-3.5634765625,-0.2001953125,3.1630859375
0.1415,-3.36328125,-0.8408203125,3.6435546875
0.142,-2.482421875,-1.921875,3.8037109375
0.1425,-2.2021484375,-2.4423828125,3.9638671875
0.143,-1.44140625,-3.203125,3.9638671875
0.1435,-0.640625,-3.5634765625,3.5234375
0.144,0.0,-4.0439453125,3.3232421875
0.1445,1.041015625,-4.32421875,2.5625
0.145,1.76171875,-4.564453125,2.08203125
0.1455,2.3623046875,-4.5244140625,1.521484375
0.146,2.9228515625,-4.4443359375,0.9208984375
0.1465,3.123046875,-3.84375,0.1201171875
0.147,3.5234375,-3.7236328125,-0.3603515625
0.1475,3.5634765625,-2.8427734375,-1.3212890625
0.148,3.8037109375,-2.5625,-1.8017578125
0.1485,3.8037109375,-1.76171875,-2.5625
0.149,3.443359375,-0.9609375,-2.962890625
0.1495,3.0029296875,-0.080078125,-3.36328125
0.15,2.5625,0.6806640625,-3.68359375
0.1505,1.8818359375,1.6015625,-3.8837890625
0.151,1.44140625,2.1220703125,-4.00390625
0.1515,0.6806640625,2.8427734375,-3.923828125
0.152,-0.16015625,3.123046875,-3.4033203125
0.1525,-0.7607421875,3.603515625,-3.283203125
0.153,-1.9619140625,3.8037109375,-2.40234375
0.1535,-2.5224609375,4.083984375,-1.9619140625
0.154,-3.203125,3.9638671875,-1.28125
0.1545,-3.68359375,3.84375,-0.640625
0.155,-3.84375,3.2431640625,0.1201171875
0.1555,-4.1640625,3.0029296875,0.720703125
0.156,-4.32421875,2.1220703125,1.7216796875
0.1565,-4.3642578125,1.6416015625,2.162109375
0.157,-4.32421875,0.880859375,2.9228515625
0.1575,-3.7236328125,-0.16015625,3.2431640625
0.158,-3.36328125,-0.9208984375,3.68359375
0.1585,-2.6025390625,-1.8818359375,3.84375
0.159,-2.08203125,-2.642578125,4.1240234375
0.1595,-1.4013671875,-3.1630859375,3.8837890625
0.16,-0.640625,-3.84375,3.8037109375
0.1605,0.16015625,-4.00390625,3.1630859375
0.161,0.8408203125,-4.4443359375,2.9228515625
0.1615,1.9619140625,-4.5244140625,1.921875
0.162,2.4423828125,-4.64453125,1.5615234375
0.1625,3.04296875,-4.4443359375,0.80078125
0.163,3.4033203125,-4.1240234375,0.16015625
0.1635,3.5634765625,-3.603515625,-0.5205078125
0.164,3.763671875,-3.123046875,-1.201171875
0.1645,3.9638671875,-2.4423828125,-2.08203125
0.165,3.84375,-1.8818359375,-2.482421875
0.1655,3.84375,-1.0810546875,-3.203125
0.166,3.04296875,-0.080078125,-3.443359375
0.1665,2.8427734375,0.6005859375,-3.8837890625
0.167,1.921875,1.681640625,-4.00390625
0.1675,1.5615234375,2.322265625,-4.2841796875
0.168,0.6806640625,2.802734375,-3.9638671875
0.1685,0.0,3.443359375,-3.84375
0.169,-0.9208984375,3.603515625,-3.203125
0.1695,-1.6416015625,4.0439453125,-2.8427734375
0.17,-2.8427734375,4.244140625,-1.8818359375
0.1705,-3.2431640625,4.1640625,-1.361328125
0.171,-3.8837890625,3.9638671875,-0.560546875
0.1715,-4.1640625,3.5234375,0.2001953125
0.172,-4.404296875,3.0830078125,0.8408203125
0.1725,-4.5244140625,2.2822265625,1.7216796875
0.173,-4.724609375,1.7216796875,2.5224609375
0.1735,-4.32421875,0.880859375,2.9228515625
0.174,-4.2841796875,0.0,3.68359375
0.1745,-3.36328125,-1.0810546875,3.84375
0.175,-3.0830078125,-1.76171875,4.1640625
0.1755,-2.001953125,-2.9228515625,4.2841796875
0.176,-1.44140625,-3.5634765625,4.2841796875
0.1765,-0.6005859375,-4.00390625,3.84375
0.177,0.16015625,-4.484375,3.5634765625
0.1775,1.0009765625,-4.5244140625,2.8427734375
0.178,1.8818359375,-4.8046875,2.2822265625
0.1785,2.962890625,-4.96484375,1.4013671875
0.179,3.203125,-4.564453125,0.7607421875
0.1795,3.8037109375,-4.404296875,0.0
0.18,3.84375,-3.7236328125,-0.6806640625
0.1805,4.00390625,-3.3232421875,-1.28125
0.181,4.083984375,-2.4423828125,-2.2021484375
0.1815,4.2041015625,-1.8818359375,-2.8828125
0.182,3.68359375,-1.0009765625,-3.2431640625
0.1825,3.5634765625,-0.2001953125,-3.84375
0.183,2.6826171875,0.8408203125,-3.923828125
0.1835,2.40234375,1.521484375,-4.244140625
0.184,1.4013671875,2.6025390625,-4.4443359375
0.1845,0.8408203125,3.04296875,-4.32421875
0.185,-0.080078125,3.603515625,-3.9638671875
0.1855,-0.8408203125,4.00390625,-3.5634765625
0.186,-1.681640625,4.2041015625,-2.9228515625
0.1865,-2.642578125,4.4443359375,-2.2421875
0.187,-3.7236328125,4.64453125,-1.361328125
0.1875,-4.00390625,4.1240234375,-0.560546875
0.188,-4.6044921875,4.0439453125,0.1201171875
0.1885,-4.64453125,3.203125,0.9609375
0.189,-4.8447265625,2.7626953125,1.5615234375
0.1895,-4.9248046875,1.76171875,2.642578125
0.19,-4.9248046875,1.0810546875,3.3232421875
0.1905,-4.244140625,0.0,3.763671875
0.191,-4.00390625,-0.9208984375,4.32421875
0.1915,-3.0029296875,-1.9619140625,4.32421875
0.192,-2.482421875,-2.72265625,4.484375
0.1925,-1.44140625,-3.8837890625,4.6044921875
0.193,-0.640625,-4.2041015625,4.1240234375
0.1935,0.16015625,-4.64453125,3.84375
0.194,1.041015625,-4.8447265625,3.1630859375
0.1945,1.921875,-5.0048828125,2.40234375
0.195,2.802734375,-5.125,1.6416015625
0.1955,3.68359375,-5.1650390625,0.880859375
0.196,3.8037109375,-4.3642578125,0.0
0.1965,4.2841796875,-4.2841796875,-0.6005859375
0.197,4.1640625,-3.283203125,-1.44140625
0.1975,4.32421875,-2.8427734375,-2.001953125
0.198,4.3642578125,-1.921875,-3.0029296875
0.1985,4.1240234375,-1.1611328125,-3.4833984375
0.199,3.5634765625,-0.16015625,-3.8837890625
0.1995,3.1630859375,0.6005859375,-4.2041015625
0.2,2.322265625,1.521484375,-4.2841796875
0.2005,1.8017578125,2.2421875,-4.484375
0.201,0.9609375,3.203125,-4.64453125
0.2015,0.0400390625,3.5234375,-3.923828125
0.202,-0.640625,4.1240234375,-3.8837890625
0.2025,-1.6015625,4.244140625,-3.04296875
0.203,-2.3623046875,4.484375,-2.5224609375
0.2035,-3.36328125,4.6044921875,-1.6416015625
0.204,-4.083984375,4.5244140625,-0.9208984375
0.2045,-4.32421875,3.84375,0.0
0.205,-4.7646484375,3.763671875,0.560546875
0.2055,-4.8046875,2.802734375,1.521484375
0.206,-4.884765625,2.2822265625,2.1220703125
0.2065,-5.0849609375,1.3212890625,3.1630859375
0.207,-4.564453125,0.48046875,3.5634765625
0.2075,-4.1240234375,-0.640625,4.1240234375
0.208,-3.5234375,-1.5615234375,4.3642578125
0.2085,-2.642578125,-2.5224609375,4.484375
0.209,-2.001953125,-3.2431640625,4.5244140625
0.2095,-1.12109375,-4.1640625,4.6044921875
0.21,-0.1201171875,-4.3642578125,3.84375
0.2105,0.5205078125,-4.884765625,3.68359375
0.211,1.76171875,-5.0048828125,2.6025390625
0.2115,2.40234375,-5.125,2.08203125
0.212,3.3232421875,-5.125,1.201171875
0.2125,3.8037109375,-4.884765625,0.48046875
0.213,3.9638671875,-4.2041015625,-0.3603515625
0.2135,4.244140625,-3.8837890625,-0.9609375
0.214,4.244140625,-2.8828125,-1.9619140625
0.2145,4.244140625,-2.40234375,-2.40234375
0.215,4.404296875,-1.521484375,-3.4033203125
0.2155,3.68359375,-0.5205078125,-3.603515625
0.216,3.36328125,0.240234375,-4.1240234375
0.2165,2.5625,1.2412109375,-4.2041015625
0.217,1.9619140625,1.9619140625,-4.4443359375
0.2175,1.28125,2.7626953125,-4.4443359375
0.218,0.48046875,3.4833984375,-4.3642578125
0.2185,-0.48046875,3.68359375,-3.603515625
0.219,-1.041015625,4.1640625,-3.5634765625
0.2195,-2.2822265625,4.2841796875,-2.40234375
0.22,-2.7626953125,4.4443359375,-2.08203125
0.2205,-3.763671875,4.484375,-1.201171875
0.221,-4.083984375,4.083984375,-0.400390625
0.2215,-4.4443359375,3.68359375,0.2802734375
0.222,-4.64453125,3.1630859375,0.9609375
0.2225,-4.7646484375,2.3623046875,1.921875
0.223,-4.7646484375,1.76171875,2.482421875
0.2235,-4.884765625,1.0009765625,3.36328125
0.224,-4.0439453125,-0.2001953125,3.6435546875
0.2245,-3.923828125,-1.0009765625,4.2041015625
0.225,-2.8427734375,-2.1220703125,4.2841796875
0.2255,-2.40234375,-2.802734375,4.5244140625
0.226,-1.4814453125,-3.5634765625,4.4443359375
0.2265,-0.640625,-4.2041015625,4.2041015625
0.227,0.240234375,-4.484375,3.5234375
0.2275,0.9609375,-4.9248046875,3.2431640625
0.228,2.2421875,-5.0048828125,2.1220703125
0.2285,2.6826171875,-5.0048828125,1.76171875
0.229,3.5634765625,-5.0048828125,0.8408203125
0.2295,3.763671875,-4.404296875,0.0400390625
