wavelength,x,y,z
0.0,-4.8797607421875,-15.089721679688,19.383911132812
0.0005,-0.1951904296875,-17.772338867188,17.582153320312
0.001,3.9688720703125,-19.413940429688,15.299926757812
0.0015,6.7315673828125,-19.974487304688,13.217895507812
0.002,9.9346923828125,-20.254760742188,10.775512695312
0.0025,13.418090820312,-19.814331054688,7.0118408203125
0.003,16.340942382812,-18.653198242188,3.0880126953125
0.0035,18.422973632812,-16.611206054688,-1.1160888671875
0.004,19.984497070312,-14.409057617188,-4.7596435546875
0.0045,20.344848632812,-11.806518554688,-7.7625732421875
0.005,20.464965820312,-8.6033935546875,-11.045776367188
0.0055,19.944458007812,-4.7596435546875,-14.489135742188
0.006,18.743286132812,-0.7957763671875,-17.011596679688
0.0065,16.461059570312,3.0479736328125,-18.853393554688
0.007,14.258911132812,6.0509033203125,-19.694213867188
0.0075,11.696411132812,9.1739501953125,-20.294799804688
0.008,7.4923095703125,12.777465820312,-19.774291992188
0.0085,3.3282470703125,15.620239257812,-18.613159179688
0.009,-1.1561279296875,17.782348632812,-16.531127929688
0.0095,-4.8797607421875,19.223754882812,-14.729370117188
0.01,-7.6024169921875,19.624145507812,-12.286987304688
0.0105,-10.605346679688,19.824340820312,-9.8446044921875
0.011,-14.168823242188,19.183715820312,-5.7606201171875
0.0115,-16.891479492188,17.662231445312,-1.7166748046875
0.012,-18.653198242188,15.500122070312,2.2471923828125
0.0125,-19.774291992188,13.378051757812,5.4503173828125
0.013,-20.214721679688,10.735473632812,8.5733642578125
0.0135,-20.014526367188,7.1719970703125,11.976684570312
0.014,-19.373901367188,3.5284423828125,14.939575195312
0.0145,-17.852416992188,-0.4354248046875,17.421997070312
0.015,-15.690307617188,-4.1990966796875,19.103637695312
0.0155,-13.328002929688,-7.0018310546875,19.544067382812
0.016,-10.885620117188,-9.8846435546875,20.024536132812
0.0165,-6.2811279296875,-13.728393554688,19.383911132812
0.017,-1.9569091796875,-16.370971679688,17.902465820312
0.0175,2.1671142578125,-18.012573242188,15.700317382812
0.018,5.4903564453125,-19.373901367188,13.978637695312
0.0185,8.3331298828125,-19.614135742188,11.536254882812
0.019,11.496215820312,-19.534057617188,8.5733642578125
0.0195,14.779418945312,-18.933471679688,4.8096923828125
0.02,17.341918945312,-17.091674804688,0.5655517578125
0.0205,19.023559570312,-14.929565429688,-3.2781982421875
0.021,19.704223632812,-12.647338867188,-6.2410888671875
0.0215,20.184692382812,-9.9647216796875,-9.2840576171875
0.022,19.824340820312,-5.9207763671875,-13.127807617188
0.0225,18.903442382812,-2.5174560546875,-15.770385742188
0.023,17.021606445312,1.3262939453125,-17.692260742188
0.0235,15.059692382812,4.9698486328125,-19.333862304688
0.024,12.296997070312,7.8126220703125,-19.494018554688
0.0245,9.3741455078125,10.815551757812,-19.694213867188
0.025,4.9298095703125,14.379028320312,-19.053588867188
0.0255,0.2852783203125,16.941528320312,-17.051635742188
0.026,-3.4383544921875,18.422973632812,-15.049682617188
0.0265,-6.4012451171875,19.303833007812,-13.207885742188
0.027,-9.3240966796875,19.584106445312,-10.805541992188
0.0275,-12.807495117188,19.063598632812,-6.9617919921875
0.028,-15.530151367188,18.222778320312,-3.5184326171875
0.0285,-17.812377929688,16.180786132812,0.7657470703125
0.029,-19.373901367188,14.018676757812,4.4093017578125
0.0295,-19.654174804688,11.496215820312,7.2921142578125
0.03,-20.014526367188,8.8135986328125,10.295043945312
0.0305,-19.534057617188,4.6094970703125,14.058715820312
0.031,-18.332885742188,0.9659423828125,16.581176757812
0.0315,-16.330932617188,-2.5975341796875,18.062622070312
0.032,-14.409057617188,-5.8006591796875,19.463989257812
0.0325,-11.646362304688,-8.7635498046875,19.664184570312
0.033,-7.8426513671875,-12.166870117188,19.263793945312
0.0335,-3.9188232421875,-15.089721679688,18.422973632812
0.034,0.8057861328125,-17.331909179688,16.300903320312
0.0345,4.3292236328125,-18.733276367188,14.379028320312
0.035,7.0118408203125,-19.213745117188,12.337036132812
0.0355,9.8946533203125,-19.614135742188,10.174926757812
0.036,13.698364257812,-18.853393554688,5.7305908203125
0.0365,16.180786132812,-17.572143554688,2.0870361328125
0.037,18.022583007812,-15.610229492188,-1.6766357421875
0.0375,19.423950195312,-13.528198242188,-5.1199951171875
0.038,19.584106445312,-10.805541992188,-8.0028076171875
0.0385,19.704223632812,-7.7225341796875,-11.326049804688
0.039,19.183715820312,-3.9989013671875,-14.489135742188
0.0395,17.662231445312,0.0850830078125,-17.051635742188
0.04,15.500122070312,3.5684814453125,-18.412963867188
0.0405,13.418090820312,6.4512939453125,-19.253784179688
0.041,10.895629882812,9.4542236328125,-19.894409179688
0.0415,6.0509033203125,13.338012695312,-18.973510742188
0.042,2.2872314453125,15.820434570312,-17.812377929688
0.0425,-1.9969482421875,17.782348632812,-15.770385742188
0.043,-5.4002685546875,19.103637695312,-13.928588867188
0.0435,-8.2030029296875,19.183715820312,-11.406127929688
0.044,-11.045776367188,19.383911132812,-8.9637451171875
0.0445,-14.769409179688,18.583129882812,-4.6395263671875
0.045,-17.211791992188,16.701293945312,-0.4754638671875
0.0455,-18.733276367188,14.739379882812,3.0479736328125
0.046,-19.814331054688,12.577270507812,6.2510986328125
0.0465,-19.974487304688,9.8145751953125,9.2139892578125
0.047,-19.734252929688,5.8106689453125,13.017700195312
0.0475,-18.973510742188,2.4874267578125,15.660278320312
0.048,-17.251831054688,-1.5965576171875,17.942504882812
0.0485,-15.049682617188,-5.1600341796875,19.343872070312
0.049,-12.487182617188,-7.9627685546875,19.704223632812
0.0495,-9.8846435546875,-10.965698242188,20.144653320312
0.05,-4.7196044921875,-14.889526367188,19.063598632812
0.0505,-0.3953857421875,-17.251831054688,17.261840820312
0.051,3.3282470703125,-18.733276367188,15.299926757812
0.0515,6.6514892578125,-19.894409179688,13.418090820312
0.052,9.7344970703125,-19.894409179688,10.535278320312
0.0525,13.017700195312,-19.614135742188,7.1719970703125
0.053,16.140747070312,-18.653198242188,3.4884033203125
0.0535,18.543090820312,-16.531127929688,-1.2762451171875
0.054,19.784301757812,-14.288940429688,-4.6395263671875
0.0545,20.384887695312,-11.806518554688,-7.8026123046875
0.055,20.585083007812,-9.0037841796875,-10.765502929688
0.0555,19.864379882812,-4.4393310546875,-14.769409179688
0.056,18.623168945312,-0.8358154296875,-17.131713867188
0.0565,16.661254882812,2.8878173828125,-18.893432617188
0.057,14.459106445312,6.4512939453125,-20.134643554688
0.0575,11.215942382812,9.4542236328125,-20.094604492188
0.058,7.8126220703125,12.777465820312,-20.134643554688
0.0585,3.1680908203125,16.300903320312,-19.053588867188
0.059,-1.8768310546875,18.503051757812,-16.611206054688
0.0595,-5.0799560546875,19.544067382812,-14.689331054688
0.06,-8.2030029296875,20.344848632812,-12.607299804688
0.0605,-11.205932617188,20.304809570312,-9.7244873046875
0.061,-14.849487304688,19.343872070312,-5.4403076171875
0.0615,-17.452026367188,18.062622070312,-1.5965576171875
0.062,-19.413940429688,15.740356445312,2.6876220703125
0.0625,-20.454956054688,13.418090820312,6.0509033203125
0.063,-20.655151367188,10.415161132812,9.2540283203125
0.0635,-20.775268554688,7.4923095703125,12.337036132812
0.064,-19.894409179688,3.0880126953125,15.980590820312
0.0645,-18.132690429688,-1.1160888671875,18.302856445312
0.065,-16.010620117188,-4.4793701171875,19.584106445312
0.0655,-13.808471679688,-7.7625732421875,20.705200195312
0.066,-10.445190429688,-10.765502929688,20.464965820312
0.0665,-6.0809326171875,-14.369018554688,19.864379882812
0.067,-1.8367919921875,-17.171752929688,18.543090820312
0.0675,2.9278564453125,-19.133666992188,16.060668945312
0.068,6.0509033203125,-19.934448242188,14.018676757812
0.0685,9.1739501953125,-20.374877929688,11.536254882812
0.069,12.176879882812,-20.374877929688,8.6534423828125
0.0695,15.860473632812,-19.213745117188,4.0889892578125
0.07,18.262817382812,-17.371948242188,-0.1551513671875
0.0705,19.864379882812,-15.289916992188,-3.7586669921875
0.071,20.665161132812,-12.887573242188,-7.0018310546875
0.0715,20.625122070312,-9.6444091796875,-10.244995117188
0.072,20.344848632812,-6.0008544921875,-13.688354492188
0.0725,19.544067382812,-2.2371826171875,-16.771362304688
0.073,17.462036132812,2.1671142578125,-18.893432617188
0.0735,15.099731445312,5.4102783203125,-19.894409179688
0.074,12.777465820312,8.5733642578125,-20.655151367188
0.0745,9.3741455078125,11.776489257812,-20.535034179688
0.075,4.3292236328125,15.420043945312,-19.413940429688
0.0755,0.1251220703125,17.902465820312,-17.812377929688
0.076,-4.0789794921875,19.584106445312,-15.650268554688
0.0765,-7.2020263671875,20.304809570312,-13.488159179688
0.077,-10.405151367188,20.344848632812,-10.485229492188
0.0775,-13.608276367188,20.104614257812,-7.3221435546875
0.078,-16.931518554688,18.903442382812,-2.9178466796875
0.0785,-19.213745117188,16.541137695312,1.6866455078125
0.079,-20.374877929688,14.379028320312,5.0499267578125
0.0795,-21.135620117188,11.816528320312,8.2930908203125
0.08,-21.015502929688,8.5333251953125,11.576293945312
0.0805,-20.414916992188,4.2491455078125,15.299926757812
0.081,-19.293823242188,0.4854736328125,17.902465820312
0.0815,-17.131713867188,-3.7987060546875,19.984497070312
0.082,-14.609252929688,-6.9617919921875,20.745239257812
0.0825,-11.686401367188,-10.124877929688,21.105590820312
0.083,-8.0028076171875,-13.608276367188,20.985473632812
0.0835,-2.8778076171875,-17.011596679688,19.463989257812
0.084,1.8468017578125,-19.093627929688,17.101684570312
0.0845,5.4903564453125,-20.494995117188,15.139770507812
0.085,8.6534423828125,-21.055541992188,12.697387695312
0.0855,12.016723632812,-20.855346679688,9.4141845703125
0.086,15.460083007812,-20.214721679688,5.4903564453125
0.0865,18.382934570312,-18.733276367188,1.2061767578125
0.087,20.424926757812,-16.170776367188,-3.3983154296875
0.0875,21.145629882812,-13.768432617188,-6.6014404296875
0.088,21.706176757812,-10.845581054688,-10.004760742188
0.0885,21.465942382812,-7.2420654296875,-13.448120117188
0.089,20.464965820312,-2.9178466796875,-16.851440429688
0.0895,18.703247070312,1.2061767578125,-19.173706054688
0.09,16.461059570312,5.1700439453125,-20.895385742188
0.0905,13.658325195312,8.4532470703125,-21.415893554688
0.091,10.214965820312,11.736450195312,-21.415893554688
0.0915,5.9708251953125,15.420043945312,-20.975463867188
0.092,0.9659423828125,18.543090820312,-19.253784179688
0.0925,-3.8387451171875,20.304809570312,-16.691284179688
0.093,-7.0819091796875,21.185668945312,-14.489135742188
0.0935,-10.325073242188,21.626098632812,-11.886596679688
0.094,-13.728393554688,21.145629882812,-8.2830810546875
0.0945,-17.091674804688,20.104614257812,-3.9989013671875
0.095,-19.734252929688,18.102661132812,0.6456298828125
0.0955,-21.576049804688,15.540161132812,5.0098876953125
0.096,-22.056518554688,12.817504882812,8.1729736328125
0.0965,-22.296752929688,9.5343017578125,11.696411132812
0.097,-21.816284179688,5.4102783203125,15.460083007812
0.0975,-20.655151367188,1.2061767578125,18.543090820312
0.098,-18.292846679688,-3.1580810546875,20.505004882812
0.0985,-15.970581054688,-6.8016357421875,21.906372070312
0.099,-13.087768554688,-10.004760742188,22.266723632812
0.0995,-9.1239013671875,-13.448120117188,21.826293945312
0.1,-4.5194091796875,-16.851440429688,20.785278320312
0.1005,0.5255126953125,-19.734252929688,18.743286132812
0.101,5.0899658203125,-21.175659179688,16.060668945312
0.1015,8.1729736328125,-21.656127929688,13.698364257812
0.102,11.576293945312,-21.936401367188,10.855590820312
0.1025,15.219848632812,-21.175659179688,6.6915283203125
0.103,18.262817382812,-19.894409179688,2.4073486328125
0.1035,20.545043945312,-17.572143554688,-2.1571044921875
0.104,22.146606445312,-15.049682617188,-6.1610107421875
0.1045,22.266723632812,-12.126831054688,-9.3240966796875
0.105,22.346801757812,-8.6834716796875,-12.887573242188
0.1055,21.546020507812,-4.3592529296875,-16.491088867188
0.106,20.184692382812,0.0050048828125,-19.373901367188
0.1065,17.502075195312,4.2091064453125,-21.015502929688
0.107,15.019653320312,7.6124267578125,-21.856323242188
0.1075,12.016723632812,10.895629882812,-22.336791992188
0.108,7.3721923828125,14.739379882812,-21.616088867188
0.1085,2.9678955078125,17.742309570312,-20.254760742188
0.109,-2.0770263671875,20.064575195312,-17.932495117188
0.1095,-6.2811279296875,21.586059570312,-15.530151367188
0.11,-9.2440185546875,21.666137695312,-12.887573242188
0.1105,-12.527221679688,21.866333007812,-10.044799804688
0.111,-16.370971679688,20.865356445312,-5.4403076171875
0.1115,-19.213745117188,19.183715820312,-0.9959716796875
0.112,-21.095581054688,16.621215820312,3.3682861328125
0.1125,-22.296752929688,14.138793945312,7.0919189453125
0.113,-22.456909179688,10.975708007812,10.415161132812
0.1135,-22.296752929688,7.0518798828125,14.138793945312
0.114,-21.295776367188,3.0479736328125,17.341918945312
0.1145,-19.574096679688,-1.5565185546875,20.144653320312
0.115,-16.931518554688,-5.7205810546875,21.746215820312
0.1155,-14.168823242188,-8.8035888671875,22.066528320312
0.116,-11.245971679688,-12.086791992188,22.546997070312
0.1165,-5.9207763671875,-16.170776367188,21.505981445312
0.117,-1.3162841796875,-18.853393554688,19.784301757812
0.1175,3.4083251953125,-20.695190429688,17.261840820312
0.118,7.3321533203125,-22.096557617188,14.939575195312
0.1185,10.495239257812,-21.976440429688,11.896606445312
0.119,13.818481445312,-21.856323242188,8.6934814453125
0.1195,17.542114257812,-20.895385742188,4.2091064453125
0.12,20.264770507812,-18.653198242188,-0.6756591796875
0.1205,21.786254882812,-16.170776367188,-4.8397216796875
0.121,22.546997070312,-13.528198242188,-8.2030029296875
0.1215,22.787231445312,-10.325073242188,-11.686401367188
0.122,22.226684570312,-5.6004638671875,-15.890502929688
0.1225,21.065551757812,-1.7567138671875,-18.573120117188
0.123,18.863403320312,2.6876220703125,-20.775268554688
0.1235,16.260864257812,6.8116455078125,-22.296752929688
0.124,12.977661132812,9.9346923828125,-22.176635742188
0.1245,9.7745361328125,13.217895507812,-22.416870117188
0.125,4.3692626953125,17.261840820312,-21.175659179688
0.1255,-0.7557373046875,19.864379882812,-18.973510742188
0.126,-4.8797607421875,21.225708007812,-16.491088867188
0.1265,-8.4832763671875,22.226684570312,-14.128784179688
0.127,-11.806518554688,22.066528320312,-10.885620117188
0.1275,-15.410034179688,21.385864257812,-6.9217529296875
0.128,-18.332885742188,20.264770507812,-2.8377685546875
0.1285,-20.935424804688,17.742309570312,2.2071533203125
0.129,-22.296752929688,15.059692382812,6.1710205078125
0.1295,-22.617065429688,12.096801757812,9.4141845703125
0.13,-22.857299804688,9.0938720703125,12.777465820312
0.1305,-21.976440429688,4.0889892578125,16.941528320312
0.131,-20.494995117188,0.0850830078125,19.504028320312
0.1315,-18.012573242188,-4.0389404296875,21.105590820312
0.132,-15.610229492188,-7.8426513671875,22.546997070312
0.1325,-12.046752929688,-11.045776367188,22.306762695312
0.133,-8.2030029296875,-14.569213867188,22.026489257812
0.1335,-3.3582763671875,-17.932495117188,20.745239257812
0.134,2.1270751953125,-20.374877929688,18.062622070312
0.1345,5.9307861328125,-21.495971679688,15.660278320312
0.135,9.2540283203125,-22.096557617188,13.137817382812
0.1355,12.497192382812,-22.256713867188,10.214965820312
0.136,16.541137695312,-21.055541992188,5.2501220703125
0.1365,19.223754882812,-19.614135742188,1.2462158203125
0.137,21.265747070312,-17.171752929688,-3.2381591796875
0.1375,22.506958007812,-14.569213867188,-7.0819091796875
0.138,22.466918945312,-11.165893554688,-10.405151367188
0.1385,22.546997070312,-7.9627685546875,-13.808471679688
0.139,21.586059570312,-3.3182373046875,-17.532104492188
0.1395,19.584106445312,1.3262939453125,-20.054565429688
0.14,16.941528320312,5.0899658203125,-21.295776367188
0.1405,14.499145507812,8.6134033203125,-22.456909179688
0.141,11.015747070312,11.896606445312,-22.296752929688
0.1415,5.8907470703125,15.980590820312,-21.415893554688
0.142,1.6466064453125,18.703247070312,-20.054565429688
0.1425,-3.4783935546875,20.825317382812,-17.411987304688
0.143,-7.1619873046875,21.826293945312,-14.969604492188
0.1435,-10.405151367188,21.906372070312,-12.046752929688
0.144,-13.528198242188,22.026489257812,-9.2840576171875
0.1445,-17.572143554688,20.665161132812,-4.1590576171875
0.145,-20.134643554688,18.503051757812,0.6055908203125
0.1455,-21.656127929688,16.100708007812,4.4493408203125
0.146,-22.697143554688,13.538208007812,8.1329345703125
0.1465,-22.577026367188,9.9346923828125,11.536254882812
0.147,-22.256713867188,5.8507080078125,15.420043945312
0.1475,-21.215698242188,1.8868408203125,18.422973632812
0.148,-19.013549804688,-2.8377685546875,20.945434570312
0.1485,-16.290893554688,-6.5614013671875,21.946411132812
0.149,-13.528198242188,-9.8446044921875,22.506958007812
0.1495,-10.204956054688,-13.127807617188,22.546997070312
0.15,-4.4793701171875,-17.211791992188,21.105590820312
0.1505,0.2052001953125,-19.614135742188,19.143676757812
0.151,4.6094970703125,-21.295776367188,16.701293945312
0.1515,8.2130126953125,-22.256713867188,14.338989257812
0.152,11.696411132812,-22.096557617188,10.855590820312
0.1525,14.979614257812,-21.816284179688,7.5323486328125
0.153,18.422973632812,-20.575073242188,2.9678955078125
0.1535,20.945434570312,-17.972534179688,-2.1571044921875
0.154,22.066528320312,-15.410034179688,-5.7205810546875
0.1545,22.787231445312,-12.727416992188,-9.2440185546875
0.155,22.627075195312,-9.2440185546875,-12.527221679688
0.1555,21.786254882812,-4.3992919921875,-16.651245117188
0.156,20.464965820312,-0.5555419921875,-19.173706054688
0.1565,18.142700195312,3.8487548828125,-21.175659179688
0.157,15.339965820312,7.5723876953125,-22.176635742188
0.1575,11.936645507812,10.935668945312,-22.216674804688
0.158,8.4532470703125,14.338989257812,-22.176635742188
0.1585,2.9678955078125,18.062622070312,-20.655151367188
0.159,-2.2371826171875,20.304809570312,-18.012573242188
0.1595,-5.8406982421875,21.505981445312,-15.850463867188
0.16,-9.3240966796875,22.266723632812,-13.448120117188
0.1605,-12.727416992188,21.906372070312,-9.9647216796875
0.161,-16.290893554688,21.105590820312,-5.7606201171875
0.1615,-19.213745117188,19.584106445312,-1.5565185546875
0.162,-21.415893554688,16.941528320312,3.4483642578125
0.1625,-22.256713867188,14.258911132812,6.8516845703125
0.163,-22.617065429688,11.215942382812,10.415161132812
0.1635,-22.536987304688,7.7725830078125,13.818481445312
0.164,-21.495971679688,2.9278564453125,17.622192382812
0.1645,-19.574096679688,-1.3963623046875,19.984497070312
0.165,-17.251831054688,-5.2801513671875,21.626098632812
0.1655,-14.649291992188,-8.8035888671875,22.546997070312
0.166,-10.885620117188,-12.086791992188,22.226684570312
0.1665,-6.6815185546875,-15.690307617188,21.746215820312
0.167,-1.7166748046875,-18.813354492188,20.144653320312
0.1675,3.5284423828125,-20.855346679688,17.221801757812
0.168,6.8516845703125,-21.696166992188,14.979614257812
0.1685,10.295043945312,-22.296752929688,12.377075195312
0.169,13.698364257812,-21.976440429688,8.8936767578125
0.1695,17.341918945312,-20.815307617188,4.1290283203125
0.17,19.904418945312,-18.893432617188,-0.2352294921875
0.1705,21.826293945312,-16.370971679688,-4.5594482421875
0.171,22.426879882812,-13.568237304688,-7.8826904296875
0.1715,22.546997070312,-10.124877929688,-11.526245117188
0.172,22.186645507812,-6.3612060546875,-15.049682617188
0.1725,21.105590820312,-1.9969482421875,-18.412963867188
0.173,18.663208007812,2.6475830078125,-20.494995117188
0.1735,16.180786132812,6.1710205078125,-21.656127929688
0.174,13.498168945312,9.6143798828125,-22.376831054688
0.1745,9.5343017578125,12.977661132812,-21.936401367188
0.175,4.7296142578125,16.621215820312,-20.895385742188
0.1755,0.0050048828125,19.343872070312,-19.133666992188
0.176,-4.7596435546875,21.105590820312,-16.491088867188
0.1765,-7.8826904296875,21.586059570312,-14.088745117188
0.177,-11.286010742188,21.786254882812,-11.165893554688
0.1775,-14.689331054688,21.385864257812,-7.6024169921875
0.178,-18.012573242188,19.984497070312,-2.9578857421875
