wavelength,x,y,z
0.0,5.2451171875,1.0810546875,-6.40625
0.0005,5.4453125,0.0400390625,-6.0458984375
0.001,5.6455078125,-0.9208984375,-5.60546875
0.0015,5.8857421875,-1.9619140625,-5.28515625
0.002,5.6455078125,-3.3232421875,-3.8037109375
0.0025,5.2451171875,-4.244140625,-2.6025390625
0.003,4.484375,-4.96484375,-1.361328125
0.0035,3.9638671875,-5.4853515625,-0.4404296875
0.004,3.36328125,-6.0458984375,0.6005859375
0.0045,2.802734375,-6.56640625,1.6015625
0.005,1.2412109375,-6.486328125,3.0830078125
0.0055,-0.3203125,-6.0458984375,4.1240234375
0.006,-1.041015625,-5.845703125,4.7646484375
0.0065,-1.8017578125,-5.765625,5.4453125
0.007,-2.8427734375,-5.4052734375,6.40625
0.0075,-4.1240234375,-4.2041015625,6.6865234375
0.008,-4.9248046875,-3.0830078125,6.6064453125
0.0085,-5.4453125,-1.7216796875,6.0859375
0.009,-5.7255859375,-0.8408203125,5.7255859375
0.0095,-5.92578125,0.2001953125,5.3251953125
0.01,-6.2060546875,1.1611328125,5.044921875
0.0105,-5.845703125,2.5224609375,3.5234375
0.011,-5.2451171875,3.5234375,2.2021484375
0.0115,-4.6845703125,4.1240234375,1.12109375
0.012,-4.2841796875,4.7646484375,0.2802734375
0.0125,-3.8037109375,5.365234375,-0.80078125
0.013,-2.72265625,5.7255859375,-2.08203125
0.0135,-1.521484375,5.7255859375,-3.283203125
0.014,-0.240234375,5.2451171875,-4.1640625
0.0145,0.6005859375,5.1650390625,-4.8447265625
0.015,1.44140625,5.0048828125,-5.525390625
0.0155,2.40234375,4.7646484375,-6.5263671875
0.016,3.84375,3.2431640625,-6.6865234375
0.0165,4.5244140625,1.8818359375,-6.40625
0.017,4.96484375,0.80078125,-5.9658203125
0.0175,5.2451171875,0.0,-5.765625
0.018,5.4853515625,-1.041015625,-5.3251953125
0.0185,5.60546875,-2.162109375,-4.6845703125
0.019,5.3251953125,-3.3232421875,-3.4833984375
0.0195,4.6044921875,-4.1640625,-2.08203125
0.02,4.1240234375,-4.8046875,-1.12109375
0.0205,3.763671875,-5.4052734375,-0.2802734375
0.021,3.4033203125,-6.0859375,0.640625
0.0215,1.9619140625,-6.166015625,2.162109375
0.022,0.720703125,-6.005859375,3.2431640625
0.0225,-0.3603515625,-5.765625,4.00390625
0.023,-1.041015625,-5.765625,4.7646484375
0.0235,-1.9619140625,-5.4453125,5.4853515625
0.024,-3.04296875,-5.044921875,6.2861328125
0.0245,-4.1240234375,-3.8037109375,6.3662109375
0.025,-4.8046875,-2.40234375,5.8857421875
0.0255,-5.205078125,-1.44140625,5.60546875
0.026,-5.4453125,-0.640625,5.4052734375
0.0265,-5.92578125,0.3203125,5.205078125
0.027,-5.6455078125,1.6015625,4.00390625
0.0275,-5.365234375,2.6025390625,3.0029296875
0.028,-4.7646484375,3.3232421875,1.8818359375
0.0285,-4.404296875,3.9638671875,1.0009765625
0.029,-3.9638671875,4.6044921875,0.1201171875
0.0295,-3.603515625,5.2451171875,-0.880859375
0.03,-2.322265625,5.3251953125,-2.2021484375
0.0305,-1.0009765625,5.044921875,-3.203125
0.031,-0.2802734375,4.96484375,-3.9638671875
0.0315,0.6005859375,5.0048828125,-4.7646484375
0.032,1.5615234375,4.8447265625,-5.685546875
0.0325,2.802734375,3.84375,-6.1259765625
0.033,3.6435546875,2.8427734375,-6.2060546875
0.0335,4.2041015625,1.5615234375,-5.845703125
0.034,4.64453125,0.7607421875,-5.6455078125
0.0345,4.9248046875,-0.3203125,-5.4453125
0.035,5.4052734375,-1.0009765625,-5.3251953125
0.0355,5.1650390625,-2.2822265625,-4.083984375
0.036,4.724609375,-3.2431640625,-2.8828125
0.0365,4.2841796875,-3.923828125,-1.921875
0.037,4.00390625,-4.64453125,-1.0810546875
0.0375,3.6435546875,-5.3251953125,-0.2001953125
0.038,2.802734375,-5.765625,1.0810546875
0.0385,1.7216796875,-5.845703125,2.162109375
0.039,0.560546875,-5.525390625,3.04296875
0.0395,-0.3203125,-5.60546875,3.84375
0.04,-1.0810546875,-5.525390625,4.64453125
0.0405,-1.9619140625,-5.60546875,5.60546875
0.041,-3.203125,-4.3642578125,5.845703125
0.0415,-4.0439453125,-3.203125,5.7255859375
0.042,-4.5244140625,-2.162109375,5.4453125
0.0425,-5.0849609375,-1.4013671875,5.4052734375
0.043,-5.28515625,-0.560546875,5.1650390625
0.0435,-5.525390625,0.560546875,4.724609375
0.044,-5.3251953125,1.5615234375,3.8037109375
0.0445,-4.8447265625,2.482421875,2.5625
0.045,-4.5244140625,3.1630859375,1.6416015625
0.0455,-4.2041015625,3.84375,0.8408203125
0.046,-4.083984375,4.64453125,0.1201171875
0.0465,-2.962890625,4.9248046875,-1.28125
0.047,-1.921875,4.96484375,-2.322265625
0.0475,-1.0009765625,4.8046875,-3.123046875
0.048,-0.2802734375,4.9248046875,-3.923828125
0.0485,0.720703125,4.8046875,-4.8447265625
0.049,1.7216796875,4.5244140625,-5.7255859375
0.0495,2.802734375,3.4833984375,-5.92578125
0.05,3.5634765625,2.2421875,-5.6455078125
0.0505,4.00390625,1.2412109375,-5.525390625
0.051,4.5244140625,0.6005859375,-5.4453125
0.0515,4.96484375,-0.2802734375,-5.4453125
0.052,5.0048828125,-1.44140625,-4.5244140625
0.0525,4.8046875,-2.40234375,-3.603515625
0.053,4.32421875,-3.203125,-2.5625
0.0535,4.1240234375,-3.923828125,-1.7216796875
0.054,3.84375,-4.64453125,-0.8408203125
0.0545,3.5634765625,-5.4453125,0.1201171875
0.055,2.40234375,-5.60546875,1.3212890625
0.0555,1.2412109375,-5.4453125,2.3623046875
0.056,0.4404296875,-5.4853515625,3.1630859375
0.0565,-0.400390625,-5.6455078125,4.00390625
0.057,-1.28125,-5.6455078125,5.0048828125
0.0575,-2.5625,-4.8447265625,5.5654296875
0.058,-3.4033203125,-3.8037109375,5.7255859375
0.0585,-4.083984375,-2.6025390625,5.5654296875
0.059,-4.6044921875,-1.8017578125,5.365234375
0.0595,-5.0048828125,-1.0009765625,5.2451171875
0.06,-5.4453125,-0.2001953125,5.1650390625
0.0605,-5.3251953125,1.0810546875,4.1240234375
0.061,-4.96484375,2.0419921875,3.04296875
0.0615,-4.6044921875,2.802734375,2.08203125
0.062,-4.3642578125,3.5234375,1.28125
0.0625,-4.1240234375,4.244140625,0.4404296875
0.063,-3.4033203125,4.8046875,-0.80078125
0.0635,-2.4423828125,5.0048828125,-1.8818359375
0.064,-1.28125,4.8046875,-2.8427734375
0.0645,-0.6005859375,4.8447265625,-3.603515625
0.065,0.3603515625,4.884765625,-4.5244140625
0.0655,1.2412109375,4.8447265625,-5.525390625
0.066,2.5625,3.763671875,-5.845703125
0.0665,3.443359375,2.5224609375,-5.765625
0.067,3.9638671875,1.5615234375,-5.5654296875
0.0675,4.484375,0.80078125,-5.4853515625
0.068,4.8447265625,-0.2001953125,-5.3251953125
0.0685,5.0849609375,-1.2412109375,-4.8447265625
0.069,5.0048828125,-2.2822265625,-3.8837890625
0.0695,4.484375,-3.203125,-2.6826171875
0.07,4.1240234375,-3.8837890625,-1.8017578125
0.0705,3.84375,-4.64453125,-1.0009765625
0.071,3.68359375,-5.4052734375,0.0
0.0715,2.482421875,-5.6455078125,1.3212890625
0.072,1.361328125,-5.6455078125,2.40234375
0.0725,0.4404296875,-5.60546875,3.203125
0.073,-0.3603515625,-5.6455078125,4.00390625
0.0735,-1.3212890625,-5.525390625,4.8447265625
0.074,-2.3623046875,-5.125,5.7255859375
0.0745,-3.4833984375,-4.00390625,5.92578125
0.075,-4.244140625,-2.6826171875,5.60546875
0.0755,-4.6845703125,-1.76171875,5.4453125
0.076,-5.0849609375,-1.0009765625,5.2451171875
0.0765,-5.4853515625,-0.16015625,5.125
0.077,-5.4453125,1.2412109375,4.083984375
0.0775,-5.2451171875,2.2421875,3.123046875
0.078,-4.724609375,3.0029296875,2.0419921875
0.0785,-4.4443359375,3.7236328125,1.201171875
0.079,-4.00390625,4.32421875,0.2802734375
0.0795,-3.603515625,5.044921875,-0.7607421875
0.08,-2.4423828125,5.205078125,-2.08203125
0.0805,-1.1611328125,4.9248046875,-3.1630859375
0.081,-0.400390625,4.9248046875,-3.8837890625
0.0815,0.48046875,4.96484375,-4.6845703125
0.082,1.4814453125,4.7646484375,-5.6455078125
0.0825,2.8427734375,3.7236328125,-6.1259765625
0.083,3.763671875,2.6826171875,-6.166015625
0.0835,4.32421875,1.44140625,-5.765625
0.084,4.724609375,0.640625,-5.6455078125
0.0845,5.0048828125,-0.3603515625,-5.365234375
0.085,5.365234375,-1.1611328125,-5.0048828125
0.0855,5.1650390625,-2.6025390625,-3.8837890625
0.086,4.724609375,-3.603515625,-2.6025390625
0.0865,4.2041015625,-4.2041015625,-1.6416015625
0.087,3.8837890625,-4.8447265625,-0.8408203125
0.0875,3.443359375,-5.4853515625,0.2001953125
0.088,2.482421875,-5.92578125,1.521484375
0.0885,1.4013671875,-6.0458984375,2.6025390625
0.089,0.2001953125,-5.7255859375,3.5234375
0.0895,-0.640625,-5.7255859375,4.244140625
0.09,-1.44140625,-5.525390625,5.0048828125
0.0905,-2.40234375,-5.365234375,6.005859375
0.091,-3.8037109375,-3.9638671875,6.2060546875
0.0915,-4.564453125,-2.72265625,5.9658203125
0.092,-5.0048828125,-1.681640625,5.685546875
0.0925,-5.3251953125,-0.880859375,5.4453125
0.093,-5.525390625,0.2802734375,5.125
0.0935,-5.765625,1.3212890625,4.3642578125
0.094,-5.5654296875,2.40234375,3.3232421875
0.0945,-4.9248046875,3.3232421875,2.001953125
0.095,-4.5244140625,3.9638671875,1.12109375
0.0955,-4.1240234375,4.5244140625,0.240234375
0.096,-3.7236328125,5.2451171875,-0.80078125
0.0965,-2.322265625,5.4453125,-2.322265625
0.097,-1.1611328125,5.3251953125,-3.4033203125
0.0975,-0.2802734375,5.0849609375,-4.1640625
0.098,0.6005859375,5.125,-4.9248046875
0.0985,1.681640625,4.7646484375,-5.765625
0.099,2.8427734375,4.1640625,-6.56640625
0.0995,4.00390625,2.8427734375,-6.7265625
0.1,4.724609375,1.4013671875,-6.2060546875
0.1005,5.0849609375,0.48046875,-5.92578125
0.101,5.205078125,-0.640625,-5.525390625
0.1015,5.685546875,-1.521484375,-5.205078125
0.102,5.525390625,-3.0830078125,-3.84375
0.1025,5.1650390625,-4.0439453125,-2.642578125
0.103,4.5244140625,-4.7646484375,-1.4814453125
0.1035,4.0439453125,-5.365234375,-0.6005859375
0.104,3.443359375,-5.845703125,0.5205078125
0.1045,2.72265625,-6.5263671875,1.6416015625
0.105,1.201171875,-6.486328125,3.1630859375
0.1055,-0.2802734375,-6.1259765625,4.1640625
0.106,-1.0009765625,-5.92578125,4.8447265625
0.1065,-1.8017578125,-5.7255859375,5.5654296875
0.107,-3.0029296875,-5.205078125,6.40625
0.1075,-4.4443359375,-3.8837890625,6.7666015625
0.108,-5.205078125,-2.6826171875,6.6865234375
0.1085,-5.6455078125,-1.361328125,6.0859375
0.109,-5.92578125,-0.48046875,5.8056640625
0.1095,-5.9658203125,0.6005859375,5.1650390625
0.11,-6.24609375,1.681640625,4.6044921875
0.1105,-5.845703125,3.1630859375,3.04296875
0.111,-5.205078125,4.083984375,1.7216796875
0.1115,-4.564453125,4.6044921875,0.6806640625
0.112,-4.083984375,5.0849609375,-0.2802734375
0.1125,-3.4033203125,5.5654296875,-1.3212890625
0.113,-2.162109375,5.8857421875,-2.8427734375
0.1135,-0.9609375,5.8056640625,-4.00390625
0.114,0.400390625,5.365234375,-4.7646484375
0.1145,1.0810546875,5.205078125,-5.4052734375
0.115,2.001953125,4.8046875,-6.0859375
0.1155,3.0830078125,4.4443359375,-6.9267578125
0.116,4.484375,2.802734375,-7.046875
0.1165,5.1650390625,1.4013671875,-6.6064453125
0.117,5.5654296875,0.2802734375,-6.2060546875
0.1175,5.60546875,-0.640625,-5.765625
0.118,5.7255859375,-1.681640625,-5.205078125
0.1185,5.8056640625,-2.962890625,-4.2841796875
0.119,5.4453125,-4.1640625,-2.962890625
0.1195,4.6845703125,-4.96484375,-1.521484375
0.12,4.083984375,-5.4853515625,-0.6005859375
0.1205,3.5234375,-6.005859375,0.400390625
0.121,3.0029296875,-6.56640625,1.361328125
0.1215,1.3212890625,-6.6865234375,3.04296875
0.122,0.0400390625,-6.40625,4.1240234375
0.1225,-1.0009765625,-6.005859375,4.8046875
0.123,-1.681640625,-5.8056640625,5.4453125
0.1235,-2.7626953125,-5.4052734375,6.2060546875
0.124,-3.8837890625,-4.6845703125,6.88671875
0.1245,-5.0048828125,-3.2431640625,6.88671875
0.125,-5.765625,-1.76171875,6.326171875
0.1255,-5.845703125,-0.80078125,5.8857421875
0.126,-6.1259765625,0.2001953125,5.4853515625
0.1265,-6.2861328125,1.201171875,5.044921875
0.127,-6.005859375,2.72265625,3.5234375
0.1275,-5.6455078125,3.68359375,2.40234375
0.128,-4.8447265625,4.3642578125,1.1611328125
0.1285,-4.404296875,4.8447265625,0.240234375
0.129,-3.763671875,5.365234375,-0.80078125
0.1295,-3.04296875,5.92578125,-1.9619140625
0.13,-1.4814453125,5.8857421875,-3.4833984375
0.1305,0.0,5.4853515625,-4.4443359375
0.131,0.7607421875,5.28515625,-5.0849609375
0.1315,1.521484375,5.0849609375,-5.765625
0.132,2.6826171875,4.64453125,-6.646484375
0.1325,4.083984375,3.3232421875,-7.046875
0.133,4.9248046875,2.0419921875,-6.9267578125
0.1335,5.365234375,0.7607421875,-6.3662109375
0.134,5.4853515625,-0.2001953125,-5.8056640625
0.1345,5.7255859375,-1.2412109375,-5.4853515625
0.135,6.005859375,-2.2822265625,-5.0048828125
0.1355,5.60546875,-3.8037109375,-3.36328125
0.136,4.96484375,-4.7646484375,-1.9619140625
0.1365,4.32421875,-5.365234375,-0.9208984375
0.137,3.84375,-5.92578125,0.0400390625
0.1375,3.1630859375,-6.40625,1.12109375
0.138,1.921875,-6.7265625,2.6025390625
0.1385,0.6005859375,-6.6064453125,3.8837890625
0.139,-0.80078125,-6.1259765625,4.724609375
0.1395,-1.4814453125,-5.9658203125,5.365234375
0.14,-2.4423828125,-5.6455078125,6.0859375
0.1405,-3.5234375,-5.205078125,6.9267578125
0.141,-5.0048828125,-3.5634765625,7.046875
0.1415,-5.6455078125,-2.1220703125,6.6865234375
0.142,-5.92578125,-0.880859375,6.2060546875
0.1425,-6.1259765625,0.0,5.7255859375
0.143,-6.2861328125,1.0810546875,5.125
0.1435,-6.326171875,2.4423828125,4.1240234375
0.144,-5.92578125,3.6435546875,2.7626953125
0.1445,-5.125,4.484375,1.3212890625
0.145,-4.5244140625,4.9248046875,0.3203125
0.1455,-4.00390625,5.4453125,-0.640625
0.146,-3.36328125,6.0458984375,-1.7216796875
0.1465,-1.6416015625,6.0859375,-3.4833984375
0.147,-0.3203125,5.8056640625,-4.5244140625
0.1475,0.7607421875,5.4052734375,-5.125
0.148,1.44140625,5.205078125,-5.765625
0.1485,2.5625,4.64453125,-6.486328125
0.149,3.763671875,3.8837890625,-7.20703125
0.1495,4.9248046875,2.4423828125,-7.126953125
0.15,5.4453125,0.9609375,-6.40625
0.1505,5.6455078125,-0.16015625,-6.0859375
0.151,5.7255859375,-1.0810546875,-5.60546875
0.1515,5.9658203125,-2.08203125,-5.125
0.152,5.7255859375,-3.603515625,-3.603515625
0.1525,5.205078125,-4.64453125,-2.4423828125
0.153,4.484375,-5.2451171875,-1.1611328125
0.1535,3.923828125,-5.765625,-0.3603515625
0.154,3.283203125,-6.166015625,0.80078125
0.1545,2.5625,-6.6865234375,1.921875
0.155,1.0009765625,-6.56640625,3.36328125
0.1555,-0.5205078125,-6.1259765625,4.404296875
0.156,-1.28125,-5.92578125,4.96484375
0.1565,-1.9619140625,-5.7255859375,5.60546875
0.157,-3.0029296875,-5.3251953125,6.40625
0.1575,-4.32421875,-4.0439453125,6.7265625
0.158,-5.125,-2.8828125,6.56640625
0.1585,-5.525390625,-1.5615234375,6.0458984375
0.159,-5.765625,-0.640625,5.7255859375
0.1595,-5.92578125,0.3203125,5.2451171875
0.16,-6.1259765625,1.2412109375,4.9248046875
0.1605,-5.765625,2.6025390625,3.5234375
0.161,-5.205078125,3.5634765625,2.08203125
0.1615,-4.64453125,4.1240234375,1.0810546875
0.162,-4.2041015625,4.7646484375,0.2802734375
0.1625,-3.7236328125,5.3251953125,-0.80078125
0.163,-2.72265625,5.7255859375,-2.08203125
0.1635,-1.4814453125,5.685546875,-3.2431640625
0.164,-0.240234375,5.2451171875,-4.1640625
0.1645,0.6005859375,5.205078125,-4.8447265625
0.165,1.44140625,5.044921875,-5.60546875
0.1655,2.3623046875,4.8046875,-6.486328125
0.166,3.763671875,3.3232421875,-6.6865234375
0.1665,4.564453125,1.9619140625,-6.40625
0.167,4.96484375,0.9208984375,-6.0458984375
0.1675,5.2451171875,0.0400390625,-5.765625
0.168,5.525390625,-1.0009765625,-5.4052734375
0.1685,5.60546875,-2.2421875,-4.8046875
0.169,5.365234375,-3.36328125,-3.5234375
0.1695,4.484375,-4.2041015625,-2.08203125
0.17,4.1640625,-4.8447265625,-1.1611328125
0.1705,3.763671875,-5.4052734375,-0.3203125
0.171,3.443359375,-6.0859375,0.6806640625
0.1715,1.9619140625,-6.2060546875,2.2421875
0.172,0.720703125,-6.0458984375,3.3232421875
0.1725,-0.3603515625,-5.765625,4.0439453125
0.173,-1.12109375,-5.765625,4.7646484375
0.1735,-2.0419921875,-5.4453125,5.5654296875
0.174,-3.0830078125,-4.96484375,6.2861328125
0.1745,-4.2041015625,-3.7236328125,6.40625
0.175,-4.8447265625,-2.2822265625,5.92578125
0.1755,-5.205078125,-1.3212890625,5.6455078125
0.176,-5.4453125,-0.5205078125,5.365234375
0.1765,-5.765625,0.48046875,5.2451171875
0.177,-5.685546875,1.76171875,3.8837890625
0.1775,-5.4853515625,2.802734375,3.0029296875
0.178,-4.7646484375,3.4833984375,1.76171875
0.1785,-4.3642578125,4.1240234375,0.880859375
0.179,-3.923828125,4.6845703125,0.0
0.1795,-3.4833984375,5.28515625,-1.041015625
0.18,-2.2021484375,5.365234375,-2.322265625
0.1805,-0.9208984375,5.0849609375,-3.36328125
0.181,0.0,5.0048828125,-4.0439453125
0.1815,0.6806640625,4.96484375,-4.8447265625
0.182,1.6416015625,4.7646484375,-5.7255859375
0.1825,2.8828125,3.763671875,-6.166015625
0.183,3.763671875,2.72265625,-6.2060546875
0.1835,4.2841796875,1.521484375,-5.765625
0.184,4.724609375,0.6806640625,-5.6455078125
0.1845,5.0048828125,0.0,-5.2451171875
0.185,5.365234375,-1.0810546875,-5.28515625
0.1855,5.0849609375,-2.322265625,-3.9638671875
0.186,4.64453125,-3.283203125,-2.8427734375
0.1865,4.2041015625,-3.9638671875,-1.921875
0.187,3.9638671875,-4.64453125,-1.12109375
0.1875,3.603515625,-5.28515625,-0.2001953125
0.188,2.802734375,-5.765625,1.041015625
0.1885,1.76171875,-5.845703125,2.1220703125
0.189,0.5205078125,-5.60546875,3.0830078125
0.1895,-0.2802734375,-5.6455078125,3.84375
0.19,-1.041015625,-5.60546875,4.64453125
0.1905,-1.921875,-5.60546875,5.60546875
0.191,-3.203125,-4.3642578125,5.8857421875
0.1915,-4.00390625,-3.203125,5.7255859375
0.192,-4.5244140625,-2.162109375,5.525390625
0.1925,-4.884765625,-1.521484375,5.3251953125
0.193,-5.28515625,-0.6005859375,5.1650390625
0.1935,-5.4853515625,0.400390625,4.5244140625
0.194,-5.4052734375,1.5615234375,3.84375
0.1945,-4.8447265625,2.482421875,2.5625
0.195,-4.5244140625,3.1630859375,1.681640625
0.1955,-4.2041015625,3.8837890625,0.880859375
0.196,-4.1240234375,4.64453125,0.1201171875
0.1965,-2.962890625,4.9248046875,-1.28125
0.197,-1.8818359375,4.96484375,-2.322265625
0.1975,-1.0009765625,4.8447265625,-3.123046875
0.198,-0.2802734375,4.96484375,-4.00390625
0.1985,0.7607421875,4.8046875,-4.8447265625
0.199,1.76171875,4.6044921875,-5.7255859375
0.1995,2.8427734375,3.5234375,-5.92578125
0.2,3.68359375,2.2021484375,-5.685546875
0.2005,3.9638671875,1.2412109375,-5.4853515625
0.201,4.5244140625,0.5205078125,-5.4453125
0.2015,5.0849609375,-0.4404296875,-5.60546875
0.202,4.96484375,-1.5615234375,-4.4443359375
0.2025,4.8046875,-2.5224609375,-3.5634765625
0.203,4.3642578125,-3.2431640625,-2.5224609375
0.2035,4.083984375,-4.0439453125,-1.6416015625
0.204,3.8037109375,-4.724609375,-0.80078125
0.2045,3.5234375,-5.4453125,0.16015625
0.205,2.322265625,-5.6455078125,1.4013671875
0.2055,1.12109375,-5.4453125,2.482421875
0.206,0.3603515625,-5.4853515625,3.2431640625
0.2065,-0.5205078125,-5.5654296875,4.1240234375
0.207,-1.4013671875,-5.4853515625,5.044921875
0.2075,-2.5625,-4.724609375,5.60546875
0.208,-3.4833984375,-3.8037109375,5.7255859375
0.2085,-4.00390625,-2.5224609375,5.4052734375
0.209,-4.64453125,-1.8017578125,5.365234375
0.2095,-4.96484375,-1.041015625,5.044921875
0.21,-5.4853515625,-0.2001953125,5.1650390625
0.2105,-5.3251953125,1.1611328125,4.0439453125
0.211,-4.96484375,2.1220703125,2.9228515625
0.2115,-4.6044921875,2.8427734375,2.0419921875
0.212,-4.3642578125,3.5634765625,1.2412109375
0.2125,-4.0439453125,4.2841796875,0.3603515625
0.213,-3.36328125,4.8447265625,-0.8408203125
0.2135,-2.40234375,5.044921875,-1.9619140625
0.214,-1.2412109375,4.8046875,-2.8828125
0.2145,-0.5205078125,4.884765625,-3.68359375
0.215,0.400390625,4.884765625,-4.5244140625
0.2155,1.28125,4.8447265625,-5.525390625
0.216,2.642578125,3.6435546875,-5.8056640625
0.2165,3.4833984375,2.4423828125,-5.765625
0.217,3.9638671875,1.521484375,-5.60546875
0.2175,4.4443359375,0.80078125,-5.4453125
0.218,4.8046875,-0.240234375,-5.28515625
0.2185,5.0849609375,-1.201171875,-4.8447265625
0.219,4.96484375,-2.2822265625,-3.8837890625
0.2195,4.484375,-3.203125,-2.642578125
0.22,4.1240234375,-3.8837890625,-1.8017578125
0.2205,3.84375,-4.564453125,-1.0009765625
0.221,3.6435546875,-5.365234375,-0.16015625
0.2215,2.4423828125,-5.6455078125,1.28125
0.222,1.4013671875,-5.6455078125,2.322265625
0.2225,0.48046875,-5.525390625,3.1630859375
0.223,-0.3203125,-5.60546875,3.9638671875
0.2235,-1.28125,-5.4453125,4.8046875
0.224,-2.2822265625,-5.1650390625,5.685546875
0.2245,-3.3232421875,-4.0439453125,5.8857421875
0.225,-4.1640625,-2.7626953125,5.5654296875
0.2255,-4.7646484375,-1.9619140625,5.4052734375
0.226,-5.0048828125,-1.0810546875,5.2451171875
0.2265,-5.4453125,-0.2802734375,5.125
0.227,-5.4052734375,1.12109375,4.1240234375
0.2275,-5.205078125,2.0419921875,3.2431640625
