wavelength,x,y,z
0.0,-20.3798828125,25.1845703125,-5.4453125
0.0005,-22.9423828125,23.462890625,-1.201171875
0.001,-25.625,21.0205078125,3.9638671875
0.0015,-27.1865234375,17.6572265625,8.80859375
0.002,-26.0654296875,12.1318359375,13.29296875
0.0025,-26.345703125,8.6484375,16.9765625
0.003,-24.423828125,3.4833984375,20.2197265625
0.0035,-22.6220703125,-1.6416015625,23.4228515625
0.004,-20.1396484375,-6.2861328125,25.544921875
0.0045,-15.8955078125,-12.2119140625,27.146484375
0.005,-10.7705078125,-16.17578125,25.9853515625
0.0055,-6.40625,-20.1396484375,25.5849609375
0.006,-1.4814453125,-22.501953125,23.1025390625
0.0065,4.4443359375,-25.78515625,20.6201171875
0.007,9.0087890625,-26.986328125,17.4169921875
0.0075,14.734375,-27.2265625,12.091796875
0.008,17.9375,-26.666015625,8.48828125
0.0085,21.9013671875,-25.224609375,3.1630859375
0.009,24.3837890625,-23.0625,-1.4814453125
0.0095,26.3857421875,-20.66015625,-5.92578125
0.01,27.466796875,-16.255859375,-11.4111328125
0.0105,25.9853515625,-10.810546875,-15.4951171875
0.011,25.9453125,-7.2470703125,-18.8984375
0.0115,23.623046875,-1.9619140625,-21.78125
0.012,21.701171875,3.36328125,-25.064453125
0.0125,18.6982421875,7.84765625,-26.5458984375
0.013,13.7333984375,13.93359375,-27.5068359375
0.0135,9.0087890625,17.3369140625,-26.2255859375
0.014,4.2041015625,21.1806640625,-25.2646484375
0.0145,-1.041015625,23.3427734375,-22.341796875
0.015,-5.9658203125,26.10546875,-20.259765625
0.0155,-11.2509765625,26.826171875,-15.85546875
0.016,-16.015625,26.4658203125,-10.890625
0.0165,-19.1787109375,25.9453125,-7.4072265625
0.017,-22.7822265625,23.9033203125,-1.8017578125
0.0175,-25.14453125,21.5810546875,2.8427734375
0.018,-26.345703125,18.9384765625,6.6865234375
0.0185,-27.1865234375,14.09375,12.33203125
0.019,-25.6650390625,9.048828125,15.935546875
0.0195,-25.3447265625,5.28515625,19.3388671875
0.02,-22.7021484375,0.0400390625,21.9013671875
0.0205,-21.1005859375,-4.8447265625,25.0244140625
0.021,-17.216796875,-9.6494140625,25.9052734375
0.0215,-12.3720703125,-15.0146484375,26.3857421875
0.022,-8.2080078125,-18.2177734375,25.46484375
0.0225,-2.8427734375,-21.78125,23.703125
0.023,2.2822265625,-23.9833984375,20.9404296875
0.0235,6.4462890625,-26.2255859375,19.05859375
0.024,12.2919921875,-26.7861328125,14.013671875
0.0245,16.3359375,-25.9853515625,9.3291015625
0.025,19.5791015625,-25.8251953125,6.005859375
0.0255,22.90234375,-23.3828125,0.2802734375
0.026,25.3046875,-21.30078125,-4.1640625
0.0265,25.9052734375,-18.09765625,-8.0478515625
0.027,26.505859375,-13.1328125,-13.533203125
0.0275,25.14453125,-8.48828125,-16.8564453125
0.028,24.4638671875,-4.32421875,-20.33984375
0.0285,21.8212890625,1.0009765625,-22.822265625
0.029,20.419921875,5.4453125,-25.8251953125
0.0295,15.4951171875,10.810546875,-26.1455078125
0.03,10.7705078125,15.6953125,-26.265625
0.0305,6.8466796875,18.8984375,-25.625
0.031,0.80078125,22.4619140625,-23.1025390625
0.0315,-4.244140625,24.6640625,-20.5
0.032,-8.5283203125,26.3857421875,-18.017578125
0.0325,-14.1337890625,26.74609375,-12.97265625
0.033,-17.857421875,25.544921875,-8.2080078125
0.0335,-21.140625,25.1044921875,-4.64453125
0.034,-24.3037109375,22.341796875,1.2412109375
0.0345,-26.4658203125,20.1396484375,5.5654296875
0.035,-26.3056640625,15.7353515625,9.9296875
0.0355,-26.7861328125,11.2109375,14.9345703125
0.036,-25.3046875,6.5263671875,18.09765625
0.0365,-23.9833984375,1.5615234375,21.701171875
0.037,-21.2607421875,-3.763671875,24.18359375
0.0375,-19.298828125,-8.5283203125,26.90625
0.038,-13.8134765625,-13.61328125,26.4658203125
0.0385,-9.1689453125,-17.9775390625,26.10546875
0.039,-5.125,-20.900390625,25.064453125
0.0395,1.3212890625,-24.34375,22.1416015625
0.04,6.0859375,-26.265625,19.5390625
0.0405,11.1708984375,-27.2265625,15.4951171875
0.041,15.9755859375,-27.5068359375,11.1708984375
0.0415,19.619140625,-25.9453125,6.0859375
0.042,22.662109375,-24.8642578125,2.001953125
0.0425,25.5048828125,-22.0615234375,-3.7236328125
0.043,27.546875,-19.4990234375,-8.2080078125
0.0435,26.5458984375,-13.9736328125,-12.732421875
0.044,26.826171875,-9.8896484375,-17.13671875
0.0445,25.1044921875,-5.2451171875,-20.01953125
0.045,23.22265625,0.080078125,-23.3427734375
0.0455,20.4599609375,5.0849609375,-25.5849609375
0.046,17.296875,10.41015625,-27.626953125
0.0465,12.01171875,15.0947265625,-26.9462890625
0.047,7.1669921875,19.138671875,-26.1455078125
0.0475,2.9228515625,21.701171875,-24.50390625
0.048,-3.4833984375,24.984375,-21.5810546875
0.0485,-7.8876953125,26.7861328125,-19.0986328125
0.049,-13.453125,26.826171875,-13.7734375
0.0495,-17.2568359375,26.90625,-10.169921875
0.05,-20.8203125,25.3046875,-5.125
0.0505,-23.623046875,23.5029296875,-0.640625
0.051,-25.9453125,20.740234375,4.484375
0.0515,-27.70703125,17.6171875,9.4091796875
0.052,-26.3056640625,11.9716796875,13.6533203125
0.0525,-26.3857421875,8.0478515625,17.6171875
0.053,-24.6240234375,3.4833984375,20.419921875
0.0535,-22.5419921875,-2.1220703125,23.86328125
0.054,-19.939453125,-6.7666015625,25.865234375
0.0545,-15.53515625,-12.4521484375,27.0263671875
0.055,-10.970703125,-16.416015625,26.4658203125
0.0555,-6.0458984375,-20.259765625,25.3447265625
0.056,-1.5615234375,-22.5419921875,23.1826171875
0.0565,4.484375,-25.625,20.4599609375
0.057,9.2890625,-27.306640625,17.4169921875
0.0575,14.57421875,-26.8662109375,11.8515625
0.058,18.017578125,-26.7861328125,8.4482421875
0.0585,21.4609375,-25.14453125,3.443359375
0.059,24.34375,-23.1025390625,-1.4013671875
0.0595,26.1455078125,-20.33984375,-5.92578125
0.06,27.5068359375,-16.2158203125,-11.37109375
0.0605,26.0654296875,-10.970703125,-15.2548828125
0.061,25.7451171875,-7.046875,-18.8984375
0.0615,23.7431640625,-2.6025390625,-21.30078125
0.062,21.701171875,3.1630859375,-24.82421875
0.0625,18.73828125,7.9677734375,-26.6259765625
0.063,13.5732421875,13.7333984375,-27.1064453125
0.0635,9.5693359375,17.2568359375,-26.6259765625
0.064,4.244140625,20.98046875,-25.1044921875
0.0645,-0.80078125,23.3427734375,-22.501953125
0.065,-5.8056640625,25.9052734375,-20.2197265625
0.0655,-11.5712890625,27.2666015625,-16.015625
0.066,-16.015625,26.3857421875,-10.8505859375
0.0665,-19.4189453125,26.2255859375,-7.447265625
0.067,-22.7421875,24.0234375,-2.001953125
0.0675,-25.5849609375,21.9013671875,3.0029296875
0.068,-26.74609375,18.9384765625,7.0869140625
0.0685,-27.626953125,14.09375,12.8525390625
0.069,-26.265625,9.2490234375,16.3359375
0.0695,-25.625,4.9248046875,20.01953125
0.07,-23.142578125,0.0,22.421875
0.0705,-21.3408203125,-5.205078125,25.6650390625
0.071,-17.3369140625,-10.5703125,26.9462890625
0.0715,-12.0517578125,-15.7353515625,26.826171875
0.072,-8.2880859375,-18.978515625,26.265625
0.0725,-2.5224609375,-22.5419921875,24.0634765625
0.073,2.8828125,-24.9443359375,21.2607421875
0.0735,7.2470703125,-26.90625,19.0185546875
0.074,13.5732421875,-27.9873046875,13.8935546875
0.0745,17.376953125,-26.74609375,8.9287109375
0.075,20.98046875,-26.4658203125,5.28515625
0.0755,23.9833984375,-23.703125,-0.4404296875
0.076,26.5859375,-21.5009765625,-5.205078125
0.0765,27.1064453125,-17.77734375,-9.44921875
0.077,27.5068359375,-12.6923828125,-14.9345703125
0.0775,26.1455078125,-8.2080078125,-18.09765625
0.078,25.0244140625,-3.4033203125,-21.7412109375
0.0785,22.2216796875,1.76171875,-23.9833984375
0.079,20.4599609375,6.40625,-26.7861328125
0.0795,15.375,12.2119140625,-27.466796875
0.08,10.169921875,16.81640625,-26.7861328125
0.0805,6.4462890625,19.9794921875,-26.265625
0.081,0.2001953125,23.1826171875,-23.2626953125
0.0815,-4.884765625,25.5048828125,-20.7001953125
0.082,-9.2490234375,26.7060546875,-17.7373046875
0.0825,-15.21484375,27.5068359375,-12.7724609375
0.083,-18.5380859375,25.8251953125,-7.84765625
0.0835,-22.021484375,25.3046875,-3.923828125
0.084,-24.6240234375,22.3017578125,1.6416015625
0.0845,-26.90625,20.2197265625,6.005859375
0.085,-26.8662109375,15.5751953125,10.5703125
0.0855,-26.986328125,10.810546875,15.455078125
0.086,-25.7451171875,6.6865234375,18.41796875
0.0865,-23.9833984375,1.3212890625,21.9013671875
0.087,-21.5009765625,-3.5634765625,24.2236328125
0.0875,-19.21875,-8.2080078125,26.5859375
0.088,-14.09375,-13.8134765625,26.90625
0.0885,-9.0087890625,-17.857421875,25.865234375
0.089,-5.205078125,-20.900390625,25.1845703125
0.0895,1.1611328125,-23.943359375,21.94140625
0.09,5.7255859375,-26.265625,19.779296875
0.0905,10.73046875,-26.7861328125,15.4150390625
0.091,15.8955078125,-27.5068359375,11.2109375
0.0915,19.1787109375,-25.9052734375,6.4462890625
0.092,22.5419921875,-24.744140625,2.0419921875
0.0925,25.0244140625,-21.94140625,-3.203125
0.093,27.1064453125,-19.69921875,-7.5673828125
0.0935,26.5458984375,-14.3740234375,-12.33203125
0.094,26.42578125,-9.8095703125,-16.736328125
0.0945,25.3447265625,-5.845703125,-19.619140625
0.095,23.142578125,-0.2001953125,-23.0224609375
0.0955,20.7802734375,4.564453125,-25.3046875
0.096,17.296875,9.8896484375,-27.0263671875
0.0965,12.4921875,14.974609375,-27.306640625
0.097,7.3671875,18.8583984375,-25.9853515625
0.0975,3.04296875,21.7412109375,-24.6640625
0.098,-3.2431640625,24.7041015625,-21.541015625
0.0985,-7.767578125,26.90625,-19.37890625
0.099,-13.212890625,26.7060546875,-13.8134765625
0.0995,-17.45703125,27.1064453125,-10.169921875
0.1,-20.7802734375,25.5849609375,-5.4453125
0.1005,-23.9833984375,23.7431640625,-0.48046875
0.101,-26.1455078125,20.740234375,4.6845703125
0.1015,-27.8671875,17.6572265625,9.44921875
0.102,-26.8662109375,12.2119140625,14.013671875
0.1025,-26.4658203125,7.7275390625,18.0576171875
0.103,-25.0244140625,3.5234375,20.8203125
0.1035,-22.6220703125,-2.5224609375,24.3037109375
0.104,-20.0595703125,-7.1669921875,26.3857421875
0.1045,-15.2548828125,-12.8125,27.1064453125
0.105,-11.0107421875,-17.0966796875,27.146484375
0.1055,-5.765625,-20.8203125,25.544921875
0.106,-1.041015625,-23.2626953125,23.3828125
0.1065,4.96484375,-26.0654296875,20.2998046875
0.107,9.9296875,-27.947265625,17.4169921875
0.1075,15.1748046875,-27.1865234375,11.611328125
0.108,18.818359375,-27.1064453125,8.0478515625
0.1085,21.9013671875,-25.3447265625,3.3232421875
0.109,24.904296875,-23.22265625,-1.8017578125
0.1095,26.5859375,-20.1796875,-6.56640625
0.11,27.5869140625,-15.9755859375,-11.771484375
0.1105,26.6259765625,-10.970703125,-15.8154296875
0.111,25.7451171875,-6.486328125,-19.37890625
0.1115,23.8232421875,-2.40234375,-21.5810546875
0.112,21.4609375,3.4033203125,-24.8642578125
0.1125,18.658203125,8.328125,-26.90625
0.113,13.1728515625,13.8134765625,-26.8662109375
0.1135,9.4091796875,17.4970703125,-26.7861328125
0.114,4.1240234375,20.7802734375,-24.8642578125
0.1145,-0.9609375,23.302734375,-22.421875
0.115,-5.8056640625,25.5048828125,-19.8193359375
0.1155,-11.53125,27.1064453125,-15.775390625
0.116,-15.7353515625,26.185546875,-10.890625
0.1165,-19.298828125,25.865234375,-7.126953125
0.117,-21.861328125,23.8232421875,-2.6025390625
0.1175,-24.82421875,21.7412109375,2.40234375
0.118,-26.185546875,18.658203125,6.8466796875
0.1185,-26.5859375,13.853515625,12.091796875
0.119,-26.10546875,9.7294921875,15.6953125
0.1195,-24.904296875,5.0048828125,19.21875
0.12,-22.90234375,0.720703125,21.5009765625
0.1205,-20.900390625,-4.4443359375,24.4638671875
0.121,-17.2568359375,-10.009765625,26.3857421875
0.1215,-12.01171875,-14.814453125,25.78515625
0.122,-8.5283203125,-18.337890625,25.865234375
0.1225,-3.2431640625,-21.2607421875,23.462890625
0.123,2.1220703125,-24.0634765625,21.140625
0.1235,6.4462890625,-25.78515625,18.6982421875
0.124,12.7724609375,-27.06640625,13.8134765625
0.1245,16.2958984375,-26.10546875,9.44921875
0.125,20.0595703125,-25.78515625,5.525390625
0.1255,22.5419921875,-23.3427734375,0.640625
0.126,25.3046875,-21.3408203125,-4.0439453125
0.1265,26.3857421875,-17.6171875,-8.8486328125
0.127,26.265625,-12.4921875,-13.93359375
0.1275,25.865234375,-8.8486328125,-17.1767578125
0.128,24.2236328125,-3.8837890625,-20.5
0.1285,22.021484375,0.9609375,-23.0224609375
0.129,19.9794921875,5.5654296875,-25.5849609375
0.1295,15.3349609375,11.8115234375,-27.06640625
0.13,10.1298828125,15.9755859375,-26.025390625
0.1305,6.56640625,19.458984375,-25.9453125
0.131,0.720703125,22.2216796875,-22.8623046875
0.1315,-4.4443359375,25.0244140625,-20.7001953125
0.132,-8.8486328125,26.10546875,-17.45703125
0.1325,-14.89453125,27.0263671875,-12.5322265625
0.133,-18.017578125,25.7451171875,-8.328125
0.1335,-21.701171875,24.984375,-3.923828125
0.134,-24.0634765625,22.0615234375,1.3212890625
0.1345,-26.3056640625,20.099609375,5.525390625
0.135,-26.7861328125,15.375,10.73046875
0.1355,-26.42578125,10.41015625,15.3349609375
0.136,-25.9052734375,6.9267578125,18.2978515625
0.1365,-23.5830078125,1.28125,21.62109375
0.137,-21.4609375,-3.5634765625,24.18359375
0.1375,-18.9384765625,-8.2080078125,26.1455078125
0.138,-13.8935546875,-14.173828125,27.06640625
0.1385,-8.888671875,-17.9775390625,25.7451171875
0.139,-4.96484375,-21.220703125,25.224609375
0.1395,1.2412109375,-23.783203125,21.7412109375
0.14,5.845703125,-26.345703125,19.859375
0.1405,10.9306640625,-26.74609375,15.2548828125
0.141,16.255859375,-27.4267578125,10.810546875
0.1415,19.3388671875,-26.2255859375,6.646484375
0.142,22.90234375,-24.7041015625,1.6416015625
0.1425,25.1044921875,-21.78125,-3.4833984375
0.143,26.9462890625,-19.4189453125,-7.6474609375
0.1435,26.8662109375,-14.1337890625,-12.8525390625
0.144,26.2255859375,-9.2890625,-17.0966796875
0.1445,25.544921875,-5.765625,-19.939453125
0.145,22.7421875,0.16015625,-22.982421875
0.1455,20.66015625,4.724609375,-25.4248046875
0.146,16.7763671875,9.8896484375,-26.5859375
0.1465,12.171875,15.2548828125,-27.3466796875
0.147,7.1669921875,18.818359375,-25.8251953125
0.1475,2.6025390625,21.9013671875,-24.3837890625
0.148,-3.36328125,24.3037109375,-21.0205078125
0.1485,-7.6474609375,26.6259765625,-19.138671875
0.149,-13.052734375,26.265625,-13.61328125
0.1495,-17.3369140625,26.505859375,-9.6494140625
0.15,-20.33984375,25.4248046875,-5.685546875
0.1505,-23.5029296875,23.22265625,-0.400390625
0.151,-25.4248046875,20.33984375,4.404296875
0.1515,-26.74609375,17.216796875,8.80859375
0.152,-26.5458984375,12.251953125,13.5732421875
0.1525,-25.625,7.52734375,17.4169921875
0.153,-24.744140625,3.84375,20.2197265625
0.1535,-21.9013671875,-2.1220703125,23.1826171875
0.154,-20.099609375,-6.486328125,25.6650390625
0.1545,-15.0546875,-11.8916015625,25.9052734375
0.155,-11.05078125,-16.49609375,26.5458984375
0.1555,-6.24609375,-19.859375,25.1044921875
0.156,-1.28125,-22.7021484375,23.0625
0.1565,4.32421875,-24.9443359375,19.859375
0.157,9.0888671875,-27.06640625,17.4169921875
0.1575,14.2138671875,-26.6259765625,11.9716796875
0.158,18.177734375,-26.345703125,7.927734375
0.1585,21.060546875,-25.2646484375,4.0439453125
0.159,24.18359375,-22.9423828125,-1.361328125
0.1595,25.9052734375,-20.1396484375,-5.92578125
0.16,26.5859375,-15.775390625,-10.890625
0.1605,26.505859375,-11.4111328125,-15.2548828125
0.161,25.2646484375,-6.56640625,-18.8583984375
0.1615,23.9033203125,-2.6826171875,-21.4208984375
0.162,21.140625,3.1630859375,-24.34375
0.1625,18.818359375,8.0478515625,-26.90625
0.163,13.052734375,13.453125,-26.3857421875
0.1635,9.369140625,17.5771484375,-26.74609375
0.164,4.4443359375,20.7001953125,-24.984375
0.1645,-1.0810546875,23.623046875,-22.5419921875
0.165,-6.0458984375,25.5048828125,-19.5791015625
0.1655,-11.6513671875,27.06640625,-15.6953125
0.166,-15.8955078125,26.3857421875,-10.970703125
0.1665,-19.7392578125,25.865234375,-6.6865234375
0.167,-22.3818359375,24.103515625,-2.40234375
0.1675,-25.3447265625,21.701171875,2.9228515625
0.168,-26.7861328125,18.5380859375,7.5673828125
0.1685,-26.74609375,13.3330078125,12.6923828125
0.169,-26.666015625,9.5693359375,16.4560546875
0.1695,-25.1044921875,4.484375,19.8994140625
0.17,-23.22265625,-0.1201171875,22.4619140625
0.1705,-20.66015625,-5.28515625,24.984375
0.171,-17.13671875,-10.8505859375,27.0263671875
0.1715,-11.5712890625,-15.455078125,26.0654296875
0.172,-7.8876953125,-19.21875,26.10546875
0.1725,-2.7626953125,-21.861328125,23.703125
0.173,2.9228515625,-24.8642578125,21.1806640625
0.1735,7.4072265625,-26.265625,18.2578125
0.174,13.4931640625,-27.306640625,13.3330078125
0.1745,16.9765625,-26.5458984375,9.2490234375
0.175,20.8203125,-25.78515625,4.7646484375
0.1755,23.1826171875,-23.462890625,0.2001953125
0.176,25.5849609375,-21.1806640625,-4.564453125
0.1765,26.74609375,-17.3369140625,-9.4892578125
0.177,26.025390625,-11.8916015625,-14.25390625
0.1775,25.9853515625,-8.6484375,-17.5771484375
0.178,24.0634765625,-3.5634765625,-20.7001953125
0.1785,22.021484375,1.28125,-23.3828125
0.179,19.4990234375,5.8857421875,-25.384765625
0.1795,15.0947265625,11.9716796875,-26.9462890625
0.18,10.0498046875,15.8955078125,-25.8251953125
0.1805,6.166015625,19.5791015625,-25.625
0.181,0.9609375,21.9013671875,-22.7822265625
0.1815,-4.1640625,24.7041015625,-20.6201171875
0.182,-8.8486328125,25.7451171875,-17.1767578125
0.1825,-14.3740234375,26.265625,-12.2919921875
0.183,-17.5771484375,25.625,-8.6083984375
0.1835,-21.1806640625,24.4638671875,-3.8837890625
0.184,-23.5029296875,22.1015625,0.7607421875
0.1845,-25.46484375,19.859375,4.884765625
0.185,-26.345703125,15.375,10.2900390625
0.1855,-25.544921875,10.25,14.5341796875
0.186,-25.5048828125,7.0068359375,17.77734375
0.1865,-23.2626953125,1.76171875,20.740234375
0.187,-21.5009765625,-2.9228515625,23.6630859375
0.1875,-18.498046875,-7.6474609375,25.2646484375
0.188,-13.853515625,-13.533203125,26.42578125
0.1885,-9.1689453125,-17.13671875,25.3447265625
0.189,-4.8447265625,-20.7802734375,24.6640625
0.1895,0.6806640625,-23.142578125,21.62109375
0.19,5.2451171875,-25.6650390625,19.779296875
0.1905,10.6904296875,-26.3056640625,15.134765625
0.191,15.6552734375,-26.5859375,10.5703125
0.1915,18.8583984375,-26.10546875,7.046875
0.192,22.4619140625,-24.3037109375,1.6416015625
0.1925,24.7841796875,-21.861328125,-3.0830078125
0.193,26.2255859375,-19.2587890625,-7.0869140625
0.1935,26.74609375,-14.25390625,-12.6923828125
0.194,25.625,-9.2490234375,-16.65625
0.1945,25.384765625,-5.7255859375,-19.939453125
0.195,22.662109375,0.0400390625,-22.7421875
0.1955,20.900390625,4.64453125,-25.544921875
0.196,16.6162109375,9.76953125,-26.265625
0.1965,11.9716796875,15.3349609375,-27.146484375
0.197,7.3271484375,18.73828125,-25.9052734375
0.1975,2.1220703125,22.26171875,-24.34375
0.198,-3.5234375,24.50390625,-21.060546875
0.1985,-7.767578125,26.7060546875,-19.138671875
0.199,-13.373046875,26.5859375,-13.61328125
0.1995,-17.6572265625,26.3056640625,-9.1689453125
0.2,-20.8603515625,25.7451171875,-5.525390625
0.2005,-24.18359375,23.1826171875,0.3203125
0.201,-26.0654296875,20.5400390625,4.8447265625
0.2015,-26.8662109375,16.9765625,9.12890625
0.202,-27.1064453125,12.1318359375,14.25390625
0.2025,-25.7451171875,7.1669921875,17.8173828125
0.203,-25.0244140625,3.123046875,21.140625
0.2035,-21.9814453125,-2.642578125,23.8232421875
0.204,-20.259765625,-7.046875,26.42578125
0.2045,-14.814453125,-12.33203125,26.2255859375
0.205,-10.5703125,-17.0966796875,26.7060546875
0.2055,-6.0859375,-20.33984375,25.4248046875
0.206,-0.400390625,-23.5830078125,23.0625
0.2065,4.96484375,-25.5849609375,19.939453125
0.207,9.609375,-27.306640625,17.1767578125
0.2075,14.8544921875,-27.146484375,11.931640625
0.208,18.73828125,-26.3056640625,7.3271484375
0.2085,21.78125,-25.5048828125,3.603515625
0.209,24.8642578125,-22.90234375,-2.1220703125
0.2095,26.5859375,-20.33984375,-6.4462890625
0.21,26.5458984375,-15.4951171875,-11.2109375
0.2105,26.826171875,-11.291015625,-15.775390625
0.211,25.3046875,-6.3662109375,-19.138671875
0.2115,24.0234375,-2.001953125,-22.1416015625
0.212,21.1005859375,3.5634765625,-24.6640625
0.2125,18.818359375,8.3681640625,-27.1064453125
0.213,13.0126953125,13.5732421875,-26.42578125
0.2135,8.80859375,17.857421875,-26.505859375
0.214,4.404296875,20.8203125,-25.064453125
0.2145,-1.6015625,24.0234375,-22.421875
0.215,-6.24609375,25.7451171875,-19.619140625
0.2155,-11.611328125,26.74609375,-15.4150390625
0.216,-15.9755859375,26.6259765625,-11.1708984375
0.2165,-19.779296875,25.544921875,-6.3662109375
