wavelength,x,y,z
0.0,-1.6015625,-17.1767578125,18.3779296875
0.0005,2.802734375,-19.05859375,16.095703125
0.001,6.0859375,-20.259765625,14.333984375
0.0015,9.12890625,-20.5400390625,11.69140625
0.002,12.4921875,-20.1796875,8.248046875
0.0025,15.4951171875,-19.4189453125,4.6044921875
0.003,18.1376953125,-17.6171875,0.240234375
0.0035,19.939453125,-15.4150390625,-3.7236328125
0.004,20.2998046875,-13.0126953125,-6.4462890625
0.0045,20.6201171875,-10.25,-9.5693359375
0.005,20.099609375,-6.1259765625,-13.4931640625
0.0055,19.138671875,-2.2822265625,-16.17578125
0.006,17.13671875,1.76171875,-18.2578125
0.0065,15.3349609375,5.28515625,-19.939453125
0.007,12.5322265625,8.248046875,-20.1796875
0.0075,9.12890625,11.53125,-20.099609375
0.008,4.96484375,14.7744140625,-19.3388671875
0.0085,0.0400390625,17.6171875,-17.45703125
0.009,-4.0439453125,19.21875,-15.4150390625
0.0095,-6.806640625,19.9794921875,-13.453125
0.01,-9.9697265625,20.33984375,-10.890625
0.0105,-13.61328125,19.619140625,-6.7265625
0.011,-16.17578125,18.6181640625,-3.283203125
0.0115,-18.4580078125,16.6962890625,0.880859375
0.012,-20.0595703125,14.6943359375,4.484375
0.0125,-20.1396484375,11.8916015625,7.20703125
0.013,-20.259765625,8.80859375,10.5302734375
0.0135,-19.69921875,4.724609375,14.0537109375
0.014,-18.5380859375,0.6806640625,16.9365234375
0.0145,-16.49609375,-3.1630859375,18.73828125
0.015,-14.6142578125,-6.166015625,19.8994140625
0.0155,-11.8916015625,-9.1689453125,20.33984375
0.016,-7.52734375,-12.8525390625,19.779296875
0.0165,-3.6435546875,-15.615234375,18.73828125
0.017,1.28125,-18.09765625,16.65625
0.0175,4.96484375,-19.69921875,14.734375
0.018,7.6875,-19.8994140625,12.412109375
0.0185,10.6904296875,-20.259765625,9.9697265625
0.019,14.4541015625,-19.458984375,5.60546875
0.0195,17.0166015625,-17.9775390625,1.681640625
0.02,18.8984375,-16.015625,-2.08203125
0.0205,20.099609375,-13.9736328125,-5.3251953125
0.021,20.1396484375,-11.130859375,-8.2080078125
0.0215,19.8994140625,-7.447265625,-11.8515625
0.022,19.2587890625,-3.923828125,-14.734375
0.0225,17.697265625,0.48046875,-17.4169921875
0.023,15.615234375,4.1640625,-19.0986328125
0.0235,13.2529296875,6.966796875,-19.5791015625
0.024,10.73046875,9.9697265625,-20.1396484375
0.0245,5.7255859375,13.93359375,-19.2587890625
0.025,1.76171875,16.4560546875,-17.857421875
0.0255,-2.5625,18.3779296875,-15.8955078125
0.026,-5.9658203125,19.859375,-14.09375
0.0265,-8.888671875,19.69921875,-11.291015625
0.027,-11.931640625,19.69921875,-8.4482421875
0.0275,-15.2548828125,19.0185546875,-4.564453125
0.028,-17.8173828125,17.0966796875,-0.240234375
0.0285,-19.37890625,15.0947265625,3.3232421875
0.029,-20.0595703125,12.8125,6.24609375
0.0295,-20.2197265625,10.0498046875,9.208984375
0.03,-19.7392578125,5.60546875,13.212890625
0.0305,-18.8583984375,2.2021484375,15.775390625
0.031,-17.0966796875,-1.8818359375,18.0576171875
0.0315,-15.21484375,-5.4052734375,19.7392578125
0.032,-12.33203125,-8.087890625,19.7392578125
0.0325,-9.4892578125,-11.2509765625,20.01953125
0.033,-4.64453125,-14.89453125,19.05859375
0.0335,0.080078125,-17.4169921875,17.0166015625
0.034,3.68359375,-18.8984375,15.1748046875
0.0345,6.7666015625,-19.939453125,13.29296875
0.035,9.7294921875,-19.939453125,10.5703125
0.0355,13.29296875,-19.3388671875,6.646484375
0.036,15.935546875,-18.5380859375,3.3232421875
0.0365,18.2177734375,-16.5361328125,-1.0009765625
0.037,19.6591796875,-14.57421875,-4.32421875
0.0375,19.779296875,-11.931640625,-7.0869140625
0.038,19.9794921875,-9.208984375,-10.1298828125
0.0385,19.298828125,-4.724609375,-13.93359375
0.039,18.017578125,-0.9208984375,-16.49609375
0.0395,16.1357421875,2.72265625,-18.2177734375
0.04,14.2939453125,6.005859375,-19.69921875
0.0405,11.3310546875,8.96875,-19.5390625
0.041,7.4873046875,12.412109375,-19.3388671875
0.0415,3.5234375,15.375,-18.578125
0.042,-1.361328125,17.77734375,-16.3359375
0.0425,-4.6845703125,19.05859375,-14.5341796875
0.043,-7.5673828125,19.5791015625,-12.33203125
0.0435,-10.4501953125,19.8193359375,-9.9697265625
0.044,-14.173828125,18.8984375,-5.4453125
0.0445,-16.736328125,17.5771484375,-1.8818359375
0.045,-18.5380859375,15.6953125,1.921875
0.0455,-19.7392578125,13.693359375,5.0849609375
0.046,-19.69921875,10.73046875,7.9677734375
0.0465,-19.779296875,7.4873046875,11.37109375
0.047,-19.1787109375,3.603515625,14.654296875
0.0475,-17.4970703125,-0.6806640625,17.296875
0.048,-15.4951171875,-4.00390625,18.6982421875
0.0485,-13.61328125,-7.0869140625,19.69921875
0.049,-10.7705078125,-9.9697265625,19.8994140625
0.0495,-5.845703125,-13.8134765625,19.05859375
0.05,-1.921875,-16.3759765625,17.857421875
0.0505,2.6025390625,-18.498046875,15.7353515625
0.051,5.845703125,-19.69921875,13.93359375
0.0515,8.9287109375,-19.7392578125,11.130859375
0.052,11.8115234375,-19.859375,8.6083984375
0.0525,15.3349609375,-18.8984375,4.32421875
0.053,17.77734375,-17.056640625,0.0
0.0535,19.21875,-15.2548828125,-3.36328125
0.054,20.1396484375,-13.0126953125,-6.40625
0.0545,19.939453125,-9.9697265625,-9.2890625
0.055,19.5791015625,-5.92578125,-12.97265625
0.0555,18.818359375,-2.40234375,-15.775390625
0.056,16.9365234375,1.9619140625,-18.177734375
0.0565,14.814453125,5.205078125,-19.619140625
0.057,12.171875,8.2880859375,-19.8994140625
0.0575,9.2490234375,11.451171875,-20.1796875
0.058,4.1640625,15.21484375,-18.978515625
0.0585,-0.400390625,17.6572265625,-17.13671875
0.059,-4.1240234375,19.3388671875,-15.3349609375
0.0595,-7.3271484375,20.2998046875,-13.3330078125
0.06,-10.5703125,20.1796875,-10.1298828125
0.0605,-13.8134765625,19.779296875,-6.6865234375
0.061,-16.736328125,18.73828125,-2.9228515625
0.0615,-19.0986328125,16.4560546875,1.6416015625
0.062,-20.1396484375,14.3740234375,4.7646484375
0.0625,-20.6201171875,11.771484375,7.84765625
0.063,-20.5,8.6083984375,11.0107421875
0.0635,-19.8193359375,4.1240234375,14.7744140625
0.064,-18.337890625,0.2802734375,17.3369140625
0.0645,-16.576171875,-3.6435546875,19.37890625
0.065,-14.333984375,-6.9267578125,20.419921875
0.0655,-11.05078125,-10.0498046875,20.33984375
0.066,-7.4873046875,-13.373046875,20.1796875
0.0665,-2.72265625,-16.65625,18.8984375
0.067,2.2822265625,-18.8583984375,16.3759765625
0.0675,5.4853515625,-20.01953125,14.57421875
0.068,8.6884765625,-20.5,12.2919921875
0.0685,11.8115234375,-20.33984375,9.0888671875
0.069,15.1748046875,-19.5791015625,5.044921875
0.0695,17.77734375,-18.2177734375,1.12109375
0.07,19.859375,-15.9755859375,-3.1630859375
0.0705,20.4599609375,-13.6533203125,-6.0458984375
0.071,20.580078125,-10.6103515625,-9.1689453125
0.0715,20.419921875,-7.20703125,-12.4521484375
0.072,19.4990234375,-3.04296875,-15.6552734375
0.0725,17.5771484375,1.28125,-17.9775390625
0.073,15.6552734375,4.64453125,-19.619140625
0.0735,13.3330078125,7.8076171875,-20.5
0.074,9.8896484375,10.9306640625,-20.259765625
0.0745,5.60546875,14.4541015625,-19.619140625
0.075,1.201171875,17.3369140625,-18.2978515625
0.0755,-3.5634765625,19.37890625,-15.85546875
0.076,-6.5263671875,20.2197265625,-13.853515625
0.0765,-9.849609375,20.580078125,-11.291015625
0.077,-12.97265625,20.259765625,-8.0478515625
0.0775,-16.2158203125,19.21875,-3.8837890625
0.078,-18.658203125,17.3369140625,0.400390625
0.0785,-20.3798828125,15.2548828125,4.1240234375
0.079,-20.8603515625,12.8125,7.0869140625
0.0795,-20.7802734375,9.529296875,10.41015625
0.08,-20.3798828125,5.525390625,13.9736328125
0.0805,-19.5390625,1.5615234375,17.0166015625
0.081,-17.296875,-2.8828125,19.2587890625
0.0815,-15.1748046875,-6.0859375,20.3798828125
0.082,-12.65234375,-9.1689453125,21.060546875
0.0825,-8.80859375,-12.6123046875,20.7001953125
0.083,-4.083984375,-15.8955078125,19.4990234375
0.0835,0.6005859375,-18.5380859375,17.6171875
0.084,4.884765625,-20.3798828125,15.455078125
0.0845,7.8076171875,-20.8603515625,13.1728515625
0.085,11.130859375,-21.0205078125,10.2900390625
0.0855,14.6142578125,-20.5,6.4462890625
0.086,17.6171875,-19.21875,2.2822265625
0.0865,19.859375,-16.8564453125,-2.2021484375
0.087,21.1005859375,-14.7744140625,-5.5654296875
0.0875,21.380859375,-12.01171875,-8.6884765625
0.088,21.1005859375,-8.2080078125,-12.2119140625
0.0885,20.2998046875,-4.244140625,-15.455078125
0.089,19.0185546875,0.0400390625,-18.2578125
0.0895,16.6962890625,4.32421875,-20.33984375
0.09,14.1337890625,7.3671875,-20.8603515625
0.0905,11.291015625,10.5302734375,-21.30078125
0.091,6.8466796875,14.3740234375,-20.7001953125
0.0915,2.322265625,17.376953125,-19.298828125
0.092,-2.6025390625,19.4990234375,-16.9365234375
0.0925,-6.40625,21.060546875,-15.0146484375
0.093,-9.3291015625,21.220703125,-12.33203125
0.0935,-12.6923828125,21.060546875,-9.12890625
0.094,-16.095703125,20.2197265625,-5.0849609375
0.0945,-18.9384765625,18.5380859375,-0.6005859375
0.095,-20.8603515625,16.1357421875,3.7236328125
0.0955,-21.62109375,13.7734375,6.7666015625
0.096,-21.78125,10.650390625,10.1298828125
0.0965,-21.1806640625,6.40625,13.8935546875
0.097,-20.2197265625,2.4423828125,16.8564453125
0.0975,-18.2978515625,-1.8818359375,19.21875
0.098,-16.17578125,-5.845703125,21.140625
0.0985,-13.3330078125,-8.80859375,21.3408203125
0.099,-10.1298828125,-11.9716796875,21.4208984375
0.0995,-5.4453125,-15.6953125,20.580078125
0.1,-0.6005859375,-18.5380859375,18.7783203125
0.1005,3.8837890625,-20.3798828125,16.255859375
0.101,7.2470703125,-21.380859375,14.25390625
0.1015,10.490234375,-21.541015625,11.451171875
0.102,13.93359375,-20.98046875,7.607421875
0.1025,16.9365234375,-19.939453125,3.8037109375
0.103,19.5791015625,-17.9375,-0.9208984375
0.1035,21.2607421875,-15.6953125,-4.96484375
0.104,21.4609375,-12.8125,-7.7275390625
0.1045,21.541015625,-9.9296875,-10.970703125
0.105,20.8603515625,-5.365234375,-14.7744140625
0.1055,19.69921875,-1.361328125,-17.6572265625
0.106,17.45703125,2.8427734375,-19.5390625
0.1065,15.4150390625,6.40625,-21.140625
0.107,12.3720703125,9.529296875,-21.1806640625
0.1075,8.5283203125,13.0927734375,-20.8603515625
0.108,4.2041015625,16.2958984375,-19.939453125
0.1085,-1.0009765625,19.0185546875,-17.9775390625
0.109,-5.0849609375,20.6201171875,-15.6953125
0.1095,-8.0478515625,21.1005859375,-13.4931640625
0.11,-11.2509765625,21.380859375,-10.7705078125
0.1105,-15.0947265625,20.5,-6.24609375
0.111,-17.6572265625,19.3388671875,-2.482421875
0.1115,-19.9794921875,17.13671875,1.841796875
0.112,-21.62109375,14.8544921875,5.6455078125
0.1125,-21.5009765625,11.8515625,8.6083984375
0.113,-21.5009765625,8.328125,12.171875
0.1135,-20.7802734375,4.1240234375,15.6953125
0.114,-19.298828125,-0.3203125,18.6181640625
0.1145,-16.9765625,-4.32421875,20.33984375
0.115,-14.734375,-7.4873046875,21.380859375
0.1155,-11.8515625,-10.73046875,21.7412109375
0.116,-6.966796875,-14.6142578125,20.98046875
0.1165,-2.8828125,-17.45703125,19.7392578125
0.117,2.2822265625,-19.939453125,17.376953125
0.1175,6.24609375,-21.5009765625,15.294921875
0.118,9.2490234375,-21.5009765625,12.4921875
0.1185,12.5322265625,-21.6611328125,9.7294921875
0.119,16.416015625,-20.66015625,5.044921875
0.1195,19.1787109375,-18.8583984375,0.6806640625
0.12,20.98046875,-16.736328125,-3.4833984375
0.1205,22.1015625,-14.4140625,-6.966796875
0.121,22.021484375,-11.05078125,-10.1298828125
0.1215,21.7412109375,-6.7666015625,-14.1337890625
0.122,20.7802734375,-2.962890625,-17.0966796875
0.1225,18.9384765625,1.841796875,-19.8994140625
0.123,16.4560546875,5.8857421875,-21.5009765625
0.1235,13.61328125,8.9287109375,-21.8212890625
0.124,10.6904296875,12.171875,-22.3017578125
0.1245,4.9248046875,16.4560546875,-21.060546875
0.125,0.48046875,19.05859375,-19.37890625
0.1255,-4.1640625,21.0205078125,-16.9765625
0.126,-8.0078125,22.421875,-14.814453125
0.1265,-11.291015625,22.0615234375,-11.4111328125
0.127,-14.814453125,21.861328125,-7.8876953125
0.1275,-18.2578125,20.7802734375,-3.5234375
0.128,-21.0205078125,18.3779296875,1.521484375
0.1285,-22.3818359375,15.9755859375,5.365234375
0.129,-22.982421875,13.212890625,8.6884765625
0.1295,-22.8623046875,9.849609375,12.01171875
0.13,-22.1015625,4.7646484375,16.4560546875
0.1305,-20.8203125,0.80078125,19.0986328125
0.131,-18.658203125,-3.7236328125,21.541015625
0.1315,-16.17578125,-7.7275390625,23.0224609375
0.132,-12.5322265625,-10.970703125,22.7021484375
0.1325,-9.208984375,-14.4140625,22.822265625
0.133,-3.5634765625,-18.337890625,21.30078125
0.1335,1.9619140625,-20.98046875,18.73828125
0.134,5.9658203125,-22.3818359375,16.416015625
0.1345,9.5693359375,-23.2626953125,13.93359375
0.135,13.0927734375,-22.7421875,10.330078125
0.1355,16.8564453125,-21.9013671875,5.8056640625
0.136,19.8193359375,-20.4599609375,1.76171875
0.1365,22.26171875,-17.9375,-3.36328125
0.137,23.22265625,-15.294921875,-6.966796875
0.1375,23.2626953125,-11.9716796875,-10.25
0.138,23.0625,-8.6083984375,-13.6533203125
0.1385,21.8212890625,-3.5634765625,-17.6572265625
0.139,20.01953125,1.0009765625,-20.33984375
0.1395,17.6572265625,5.125,-22.021484375
0.14,15.1748046875,8.9287109375,-23.22265625
0.1405,11.130859375,12.2119140625,-22.7822265625
0.141,6.7265625,15.9755859375,-22.26171875
0.1415,2.001953125,19.1787109375,-20.900390625
0.142,-3.7236328125,21.6611328125,-17.9775390625
0.1425,-7.3271484375,22.662109375,-15.6552734375
0.143,-10.73046875,23.0224609375,-12.732421875
0.1435,-14.09375,22.7822265625,-9.4892578125
0.144,-17.8974609375,21.4609375,-4.3642578125
0.1445,-20.66015625,19.5390625,0.0400390625
0.145,-22.58203125,17.0966796875,4.4443359375
0.1455,-23.3828125,14.3740234375,7.9677734375
0.146,-23.1025390625,10.650390625,11.4912109375
0.1465,-22.7822265625,6.7666015625,15.0146484375
0.147,-21.78125,2.2021484375,18.5380859375
0.1475,-19.458984375,-2.72265625,21.1806640625
0.148,-17.0166015625,-6.5263671875,22.4619140625
0.1485,-14.3740234375,-9.8896484375,23.4228515625
0.149,-10.4501953125,-13.4130859375,23.0224609375
0.1495,-5.0849609375,-17.3369140625,21.78125
0.15,-0.400390625,-20.1396484375,20.1396484375
0.1505,4.8447265625,-22.3818359375,17.4169921875
0.151,8.3681640625,-23.0625,14.8544921875
0.1515,12.01171875,-23.0625,11.53125
0.152,15.455078125,-22.6220703125,8.087890625
0.1525,19.0185546875,-21.2607421875,3.1630859375
0.153,21.62109375,-18.8583984375,-1.8818359375
0.1535,23.0625,-16.49609375,-5.765625
0.154,23.7431640625,-13.533203125,-9.1689453125
0.1545,23.1826171875,-9.689453125,-12.65234375
0.155,22.4619140625,-5.1650390625,-16.49609375
0.1555,21.2607421875,-0.9609375,-19.5390625
0.156,18.6982421875,4.0439453125,-21.9814453125
0.1565,16.015625,7.7275390625,-22.90234375
0.157,12.892578125,11.05078125,-23.3828125
0.1575,8.80859375,14.734375,-23.0625
0.158,3.203125,18.498046875,-21.5009765625
0.1585,-1.8017578125,21.1005859375,-19.1787109375
0.159,-6.2861328125,22.8623046875,-16.7763671875
0.1595,-9.76953125,23.3427734375,-14.0537109375
0.16,-13.3330078125,23.0625,-10.2900390625
0.1605,-16.9765625,22.341796875,-6.326171875
0.161,-20.1796875,20.7802734375,-1.681640625
0.1615,-22.501953125,17.9775390625,3.443359375
0.162,-23.462890625,15.4150390625,6.966796875
0.1625,-23.783203125,12.33203125,10.5302734375
0.163,-23.3828125,8.1279296875,14.2138671875
0.1635,-22.3017578125,3.3232421875,17.9375
0.164,-20.6201171875,-1.1611328125,20.7001953125
0.1645,-18.09765625,-5.7255859375,22.982421875
0.165,-15.294921875,-9.1689453125,23.54296875
0.1655,-11.6513671875,-12.6923828125,23.5029296875
0.166,-7.1669921875,-16.416015625,22.982421875
0.1665,-1.841796875,-19.8193359375,21.1005859375
0.167,3.6435546875,-21.94140625,18.2177734375
0.1675,7.4072265625,-23.2626953125,15.935546875
0.168,10.970703125,-23.5830078125,12.97265625
0.1685,14.57421875,-22.982421875,9.0087890625
0.169,18.0576171875,-21.94140625,4.64453125
0.1695,20.98046875,-20.0595703125,0.0
0.17,23.1025390625,-17.1767578125,-4.9248046875
0.1705,23.54296875,-14.5341796875,-8.2880859375
0.171,23.6630859375,-11.05078125,-11.69140625
0.1715,23.0224609375,-6.7265625,-15.455078125
0.172,21.7412109375,-2.2021484375,-18.73828125
0.1725,19.4990234375,2.5224609375,-21.1005859375
0.173,17.1767578125,6.56640625,-22.9423828125
0.1735,13.9736328125,10.009765625,-23.22265625
0.174,10.169921875,13.5732421875,-22.8623046875
0.1745,5.365234375,17.13671875,-21.94140625
0.175,0.16015625,20.2197265625,-20.1796875
0.1755,-4.96484375,22.1416015625,-17.3369140625
0.176,-8.2880859375,22.8623046875,-15.0947265625
0.1765,-11.7314453125,23.1025390625,-11.931640625
0.177,-15.455078125,22.3818359375,-7.7275390625
0.1775,-18.658203125,21.060546875,-3.4833984375
0.178,-21.2607421875,18.818359375,1.28125
0.1785,-23.0625,16.2958984375,5.7255859375
0.179,-23.142578125,13.29296875,8.7685546875
0.1795,-23.142578125,9.689453125,12.412109375
0.18,-22.421875,5.2451171875,16.17578125
0.1805,-21.140625,0.80078125,19.3388671875
0.181,-18.5380859375,-3.8037109375,21.4208984375
0.1815,-16.2158203125,-7.3271484375,22.662109375
0.182,-13.212890625,-10.7705078125,23.0224609375
0.1825,-8.7685546875,-14.3740234375,22.421875
0.183,-4.1240234375,-17.6171875,21.140625
0.1835,1.201171875,-20.3798828125,18.978515625
0.184,5.8857421875,-22.1416015625,16.416015625
0.1845,8.96875,-22.3818359375,13.7734375
0.185,12.33203125,-22.58203125,10.8505859375
0.1855,16.0556640625,-21.7412109375,6.4462890625
0.186,19.0185546875,-20.2197265625,2.2021484375
0.1865,21.2607421875,-17.8974609375,-2.5625
0.187,22.7421875,-15.53515625,-6.2861328125
0.1875,22.7421875,-12.3720703125,-9.609375
0.188,22.4619140625,-8.48828125,-13.1728515625
0.1885,21.5009765625,-4.3642578125,-16.4560546875
0.189,20.0595703125,0.2802734375,-19.5390625
0.1895,17.5771484375,4.724609375,-21.5009765625
0.19,14.974609375,8.0078125,-21.9814453125
0.1905,11.931640625,11.291015625,-22.6220703125
0.191,6.966796875,15.375,-21.78125
0.1915,2.40234375,18.2177734375,-20.4599609375
0.192,-2.6025390625,20.580078125,-17.9375
0.1925,-6.6865234375,22.26171875,-15.7353515625
0.193,-9.8095703125,22.181640625,-12.8125
0.1935,-13.1328125,22.1416015625,-9.689453125
0.194,-16.896484375,21.2607421875,-5.2451171875
0.1945,-19.8193359375,19.3388671875,-0.6005859375
0.195,-21.7412109375,16.896484375,3.8037109375
0.1955,-22.6220703125,14.4140625,7.0869140625
0.196,-22.7822265625,11.130859375,10.6103515625
0.1965,-22.26171875,6.646484375,14.7744140625
0.197,-21.1806640625,2.642578125,17.6572265625
0.1975,-19.298828125,-1.9619140625,20.33984375
0.198,-16.9765625,-6.2060546875,22.26171875
0.1985,-13.9736328125,-9.208984375,22.26171875
0.199,-10.890625,-12.4921875,22.5419921875
0.1995,-5.60546875,-16.5361328125,21.4609375
0.2,-0.5205078125,-19.2587890625,19.4990234375
0.2005,3.9638671875,-21.140625,17.0166015625
0.201,7.7275390625,-22.3818359375,14.8544921875
0.2015,10.890625,-22.3818359375,11.69140625
0.202,14.5341796875,-21.7412109375,7.8076171875
0.2025,17.6171875,-20.7802734375,3.9638671875
0.203,20.419921875,-18.5380859375,-1.0009765625
0.2035,22.0615234375,-16.095703125,-5.1650390625
0.204,22.3017578125,-13.3330078125,-8.0478515625
0.2045,22.341796875,-10.330078125,-11.291015625
0.205,21.541015625,-5.4853515625,-15.4951171875
0.2055,20.259765625,-1.521484375,-18.177734375
0.206,18.177734375,2.8828125,-20.099609375
0.2065,15.9755859375,6.6865234375,-21.94140625
0.207,12.6123046875,9.76953125,-21.7412109375
0.2075,8.96875,13.2529296875,-21.62109375
0.208,4.2841796875,16.6162109375,-20.66015625
0.2085,-1.041015625,19.37890625,-18.2978515625
0.209,-5.0048828125,20.8603515625,-16.095703125
0.2095,-8.2880859375,21.5009765625,-13.8134765625
0.21,-11.37109375,21.7412109375,-10.970703125
0.2105,-15.21484375,20.7802734375,-6.3662109375
0.211,-17.8173828125,19.5791015625,-2.72265625
0.2115,-20.0595703125,17.4169921875,1.841796875
0.212,-21.541015625,15.0947265625,5.4453125
0.2125,-21.4208984375,12.171875,8.5283203125
0.213,-21.5009765625,8.7685546875,11.8115234375
0.2135,-20.7001953125,4.3642578125,15.4951171875
0.214,-19.21875,0.0400390625,18.337890625
0.2145,-17.0166015625,-3.84375,19.9794921875
0.215,-14.974609375,-7.0869140625,21.1806640625
0.2155,-11.931640625,-10.169921875,21.3408203125
0.216,-7.287109375,-13.93359375,20.6201171875
0.2165,-3.2431640625,-16.6962890625,19.458984375
0.217,1.76171875,-19.21875,17.1767578125
0.2175,5.60546875,-20.580078125,15.1748046875
