wavelength,x,y,z
0.0,0.6806640625,5.5654296875,-5.365234375
0.0005,1.6416015625,4.9248046875,-5.845703125
0.001,2.8828125,3.84375,-6.2060546875
0.0015,4.00390625,2.5625,-6.40625
0.002,4.8046875,1.521484375,-6.326171875
0.0025,5.2451171875,0.720703125,-6.2861328125
0.003,5.2451171875,0.0,-5.845703125
0.0035,5.125,-1.041015625,-5.0849609375
0.004,5.0048828125,-2.2021484375,-4.0439453125
0.0045,4.8046875,-3.443359375,-2.8828125
0.005,4.6044921875,-4.404296875,-1.8818359375
0.0055,4.3642578125,-5.125,-1.12109375
0.006,3.68359375,-5.4453125,-0.2802734375
0.0065,2.6826171875,-5.685546875,1.0009765625
0.007,1.4814453125,-5.8857421875,2.40234375
0.0075,0.4404296875,-5.9658203125,3.5234375
0.008,-0.3603515625,-6.24609375,4.484375
0.0085,-1.1611328125,-6.1259765625,5.125
0.009,-2.2021484375,-5.365234375,5.60546875
0.0095,-3.4833984375,-4.3642578125,5.9658203125
0.01,-4.484375,-3.0830078125,6.0859375
0.0105,-5.1650390625,-2.08203125,6.0859375
0.011,-5.4853515625,-1.361328125,6.005859375
0.0115,-5.4853515625,-0.6005859375,5.525390625
0.012,-5.4052734375,0.48046875,4.724609375
0.0125,-5.3251953125,1.681640625,3.68359375
0.013,-5.0849609375,2.8427734375,2.5224609375
0.0135,-4.884765625,3.7236328125,1.6416015625
0.014,-4.5244140625,4.32421875,0.880859375
0.0145,-3.8037109375,4.6044921875,0.0
0.015,-2.802734375,4.96484375,-1.4013671875
0.0155,-1.6015625,5.125,-2.6826171875
0.016,-0.7607421875,5.3251953125,-3.763671875
0.0165,0.0,5.4853515625,-4.64453125
0.017,0.8408203125,5.125,-5.205078125
0.0175,1.921875,4.32421875,-5.7255859375
0.018,3.1630859375,3.3232421875,-6.0458984375
0.0185,4.1240234375,2.162109375,-6.0859375
0.019,4.6845703125,1.3212890625,-6.1259765625
0.0195,4.96484375,0.6005859375,-5.92578125
0.02,4.9248046875,-0.2802734375,-5.4453125
0.0205,4.8447265625,-1.28125,-4.6044921875
0.021,4.7646484375,-2.5224609375,-3.5634765625
0.0215,4.6044921875,-3.5634765625,-2.5224609375
0.022,4.484375,-4.3642578125,-1.76171875
0.0225,4.00390625,-4.8447265625,-1.0009765625
0.023,3.203125,-5.205078125,0.1201171875
0.0235,2.2421875,-5.60546875,1.361328125
0.024,1.1611328125,-5.765625,2.6025390625
0.0245,0.4404296875,-6.0458984375,3.603515625
0.025,-0.3603515625,-6.2060546875,4.484375
0.0255,-1.3212890625,-5.8056640625,5.0849609375
0.026,-2.482421875,-4.8447265625,5.525390625
0.0265,-3.68359375,-3.8037109375,5.845703125
0.027,-4.5244140625,-2.72265625,5.8857421875
0.0275,-5.044921875,-2.001953125,6.005859375
0.028,-5.205078125,-1.28125,5.7255859375
0.0285,-5.205078125,-0.400390625,5.0849609375
0.029,-5.205078125,0.7607421875,4.2841796875
0.0295,-5.125,2.001953125,3.203125
0.03,-5.0048828125,3.0029296875,2.2421875
0.0305,-4.8046875,3.8037109375,1.4814453125
0.031,-4.2841796875,4.244140625,0.640625
0.0315,-3.36328125,4.6044921875,-0.6005859375
0.032,-2.3623046875,4.96484375,-1.8818359375
0.0325,-1.361328125,5.0849609375,-3.0830078125
0.033,-0.6806640625,5.4453125,-4.0439453125
0.0335,0.2001953125,5.365234375,-4.8447265625
0.034,1.28125,4.8046875,-5.4052734375
0.0345,2.5224609375,3.84375,-5.8056640625
0.035,3.6435546875,2.6826171875,-6.0458984375
0.0355,4.404296875,1.7216796875,-6.0859375
0.036,4.8046875,0.9609375,-6.0859375
0.0365,4.9248046875,0.240234375,-5.6455078125
0.037,4.8046875,-0.8408203125,-4.884765625
0.0375,4.8046875,-2.08203125,-3.923828125
0.038,4.64453125,-3.203125,-2.8427734375
0.0385,4.5244140625,-4.1640625,-2.001953125
0.039,4.244140625,-4.8046875,-1.2412109375
0.0395,3.5234375,-5.125,-0.3203125
0.04,2.5625,-5.4853515625,1.041015625
0.0405,1.4013671875,-5.765625,2.40234375
0.041,0.6005859375,-6.0458984375,3.4833984375
0.0415,-0.2802734375,-6.24609375,4.3642578125
0.042,-1.1611328125,-5.845703125,5.044921875
0.0425,-2.322265625,-5.0048828125,5.4853515625
0.043,-3.5634765625,-3.923828125,5.8857421875
0.0435,-4.484375,-2.7626953125,5.9658203125
0.044,-5.125,-1.9619140625,6.005859375
0.0445,-5.3251953125,-1.2412109375,5.8056640625
0.045,-5.365234375,-0.400390625,5.2451171875
0.0455,-5.28515625,0.7607421875,4.3642578125
0.046,-5.205078125,2.0419921875,3.2431640625
0.0465,-5.0048828125,3.1630859375,2.2021484375
0.047,-4.8447265625,3.9638671875,1.4013671875
0.0475,-4.32421875,4.4443359375,0.560546875
0.048,-3.4033203125,4.724609375,-0.640625
0.0485,-2.3623046875,5.044921875,-1.9619140625
0.049,-1.28125,5.1650390625,-3.203125
0.0495,-0.5205078125,5.4052734375,-4.2041015625
0.05,0.3203125,5.4853515625,-5.0048828125
0.0505,1.3212890625,4.9248046875,-5.525390625
0.051,2.5625,3.8837890625,-5.92578125
0.0515,3.8037109375,2.6826171875,-6.2060546875
0.052,4.564453125,1.6015625,-6.166015625
0.0525,5.044921875,0.8408203125,-6.1259765625
0.053,5.0849609375,0.080078125,-5.765625
0.0535,5.0048828125,-1.0009765625,-5.0048828125
0.054,4.9248046875,-2.162109375,-3.9638671875
0.0545,4.8046875,-3.36328125,-2.8427734375
0.055,4.6044921875,-4.3642578125,-1.8818359375
0.0555,4.32421875,-5.044921875,-1.1611328125
0.056,3.6435546875,-5.4052734375,-0.2802734375
0.0565,2.6025390625,-5.6455078125,1.041015625
0.057,1.4013671875,-5.92578125,2.482421875
0.0575,0.3603515625,-6.0458984375,3.5634765625
0.058,-0.3603515625,-6.24609375,4.5244140625
0.0585,-1.201171875,-6.0458984375,5.2451171875
0.059,-2.3623046875,-5.205078125,5.7255859375
0.0595,-3.603515625,-4.083984375,6.0859375
0.06,-4.6845703125,-2.8828125,6.166015625
0.0605,-5.3251953125,-1.8818359375,6.1259765625
0.061,-5.6455078125,-1.1611328125,6.005859375
0.0615,-5.60546875,-0.3203125,5.4052734375
0.062,-5.4453125,0.8408203125,4.484375
0.0625,-5.365234375,2.1220703125,3.36328125
0.063,-5.125,3.283203125,2.2021484375
0.0635,-4.884765625,4.1240234375,1.3212890625
0.064,-4.484375,4.64453125,0.5205078125
0.0645,-3.603515625,4.8447265625,-0.6005859375
0.065,-2.4423828125,5.125,-1.9619140625
0.0655,-1.2412109375,5.3251953125,-3.36328125
0.066,-0.3203125,5.4853515625,-4.3642578125
0.0665,0.4404296875,5.6455078125,-5.205078125
0.067,1.4013671875,5.0849609375,-5.765625
0.0675,2.6826171875,4.083984375,-6.24609375
0.068,3.923828125,2.8828125,-6.486328125
0.0685,4.8447265625,1.6015625,-6.4462890625
0.069,5.365234375,0.7607421875,-6.40625
0.0695,5.4853515625,-0.16015625,-6.1259765625
0.07,5.4052734375,-1.12109375,-5.28515625
0.0705,5.1650390625,-2.3623046875,-4.1640625
0.071,5.0849609375,-3.7236328125,-2.8828125
0.0715,4.8046875,-4.8046875,-1.7216796875
0.072,4.484375,-5.4453125,-0.9208984375
0.0725,3.763671875,-5.845703125,0.1201171875
0.073,2.642578125,-6.0458984375,1.28125
0.0735,1.28125,-6.2861328125,2.802734375
0.074,0.1201171875,-6.2861328125,4.1240234375
0.0745,-0.80078125,-6.40625,5.0849609375
0.075,-1.5615234375,-6.2861328125,5.765625
0.0755,-2.72265625,-5.4453125,6.2861328125
0.076,-4.1240234375,-4.1640625,6.6064453125
0.0765,-5.2451171875,-2.7626953125,6.6865234375
0.077,-5.92578125,-1.5615234375,6.5263671875
0.0775,-6.2060546875,-0.720703125,6.326171875
0.078,-6.1259765625,0.2802734375,5.685546875
0.0785,-5.92578125,1.4013671875,4.5244140625
0.079,-5.685546875,2.7626953125,3.2431640625
0.0795,-5.4052734375,4.00390625,1.921875
0.08,-5.0048828125,4.8447265625,0.880859375
0.0805,-4.5244140625,5.365234375,0.0
0.081,-3.5634765625,5.4853515625,-1.0009765625
0.0815,-2.162109375,5.60546875,-2.5625
0.082,-0.80078125,5.765625,-4.0439453125
0.0825,0.3603515625,5.7255859375,-5.125
0.083,1.0009765625,5.765625,-5.8857421875
0.0835,1.921875,5.2451171875,-6.40625
0.084,3.203125,4.1240234375,-6.7666015625
0.0845,4.484375,2.802734375,-6.9267578125
0.085,5.4052734375,1.4013671875,-6.88671875
0.0855,5.8857421875,0.3203125,-6.6064453125
0.086,6.005859375,-0.560546875,-6.2861328125
0.0865,5.7255859375,-1.4814453125,-5.4453125
0.087,5.4453125,-2.72265625,-4.1640625
0.0875,5.205078125,-4.0439453125,-2.8427734375
0.088,4.8046875,-5.125,-1.5615234375
0.0885,4.484375,-5.8857421875,-0.640625
0.089,3.84375,-6.2861328125,0.2802734375
0.0895,2.72265625,-6.3662109375,1.3212890625
0.09,1.361328125,-6.40625,2.8427734375
0.0905,0.0,-6.4462890625,4.2841796875
0.091,-1.0009765625,-6.4462890625,5.205078125
0.0915,-1.6416015625,-6.4462890625,5.92578125
0.092,-2.642578125,-5.7255859375,6.40625
0.0925,-3.9638671875,-4.484375,6.6865234375
0.093,-5.125,-3.203125,6.8466796875
0.0935,-5.9658203125,-1.8017578125,6.6865234375
0.094,-6.326171875,-0.9208984375,6.4462890625
0.0945,-6.326171875,0.0,6.005859375
0.095,-6.1259765625,0.9609375,5.125
0.0955,-5.8056640625,2.2421875,3.84375
0.096,-5.525390625,3.603515625,2.4423828125
0.0965,-5.1650390625,4.5244140625,1.2412109375
0.097,-4.7646484375,5.205078125,0.3603515625
0.0975,-4.00390625,5.4453125,-0.640625
0.098,-2.802734375,5.60546875,-1.8017578125
0.0985,-1.44140625,5.765625,-3.3232421875
0.099,-0.16015625,5.7255859375,-4.64453125
0.0995,0.6806640625,5.8056640625,-5.4853515625
0.1,1.4013671875,5.685546875,-6.166015625
0.1005,2.5224609375,4.8046875,-6.6064453125
0.101,3.84375,3.5234375,-6.8466796875
0.1015,4.96484375,2.08203125,-6.9267578125
0.102,5.6455078125,0.880859375,-6.7265625
0.1025,5.92578125,0.0400390625,-6.486328125
0.103,5.845703125,-0.9208984375,-5.92578125
0.1035,5.60546875,-1.9619140625,-4.8447265625
0.104,5.365234375,-3.283203125,-3.5634765625
0.1045,5.0849609375,-4.64453125,-2.2021484375
0.105,4.6845703125,-5.525390625,-1.1611328125
0.1055,4.244140625,-6.1259765625,-0.3603515625
0.106,3.4033203125,-6.24609375,0.720703125
0.1065,2.0419921875,-6.3662109375,2.1220703125
0.107,0.6005859375,-6.486328125,3.68359375
0.1075,-0.6005859375,-6.4462890625,4.8046875
0.108,-1.28125,-6.486328125,5.60546875
0.1085,-2.162109375,-6.1259765625,6.2060546875
0.109,-3.36328125,-5.0048828125,6.6064453125
0.1095,-4.6845703125,-3.7236328125,6.8466796875
0.11,-5.7255859375,-2.2822265625,6.7666015625
0.1105,-6.24609375,-1.2412109375,6.56640625
0.111,-6.40625,-0.400390625,6.24609375
0.1115,-6.24609375,0.6005859375,5.4853515625
0.112,-5.9658203125,1.841796875,4.32421875
0.1125,-5.7255859375,3.1630859375,2.8828125
0.113,-5.3251953125,4.3642578125,1.5615234375
0.1135,-5.0048828125,5.0849609375,0.6005859375
0.114,-4.3642578125,5.5654296875,-0.3203125
0.1145,-3.2431640625,5.685546875,-1.44140625
0.115,-1.841796875,5.8056640625,-2.962890625
0.1155,-0.400390625,5.845703125,-4.4443359375
0.116,0.6005859375,5.845703125,-5.4052734375
0.1165,1.2412109375,5.8056640625,-6.1259765625
0.117,2.2822265625,5.0849609375,-6.6064453125
0.1175,3.6435546875,3.84375,-6.9267578125
0.118,4.8447265625,2.4423828125,-7.0869140625
0.1185,5.685546875,1.12109375,-6.88671875
0.119,6.005859375,0.1201171875,-6.6064453125
0.1195,6.0458984375,-0.80078125,-6.166015625
0.12,5.765625,-1.76171875,-5.2451171875
0.1205,5.4853515625,-3.123046875,-3.8837890625
0.121,5.1650390625,-4.484375,-2.5224609375
0.1215,4.7646484375,-5.4853515625,-1.28125
0.122,4.404296875,-6.0458984375,-0.4404296875
0.1225,3.603515625,-6.2861328125,0.6005859375
0.123,2.40234375,-6.3662109375,1.76171875
0.1235,0.9609375,-6.4462890625,3.283203125
0.124,-0.4404296875,-6.40625,4.564453125
0.1245,-1.201171875,-6.4462890625,5.4052734375
0.125,-1.8818359375,-6.2861328125,6.0859375
0.1255,-2.962890625,-5.4453125,6.4462890625
0.126,-4.2841796875,-4.1240234375,6.7265625
0.1265,-5.4052734375,-2.7626953125,6.7666015625
0.127,-6.0458984375,-1.5615234375,6.5263671875
0.1275,-6.2861328125,-0.720703125,6.3662109375
0.128,-6.2060546875,0.16015625,5.7255859375
0.1285,-5.92578125,1.201171875,4.7646484375
0.129,-5.685546875,2.4423828125,3.4833984375
0.1295,-5.4052734375,3.68359375,2.1220703125
0.13,-5.0048828125,4.6044921875,1.0810546875
0.1305,-4.6044921875,5.1650390625,0.2802734375
0.131,-3.8037109375,5.4052734375,-0.720703125
0.1315,-2.5224609375,5.4853515625,-2.001953125
0.132,-1.2412109375,5.685546875,-3.4833984375
0.1325,0.0400390625,5.60546875,-4.6044921875
0.133,0.6806640625,5.7255859375,-5.4453125
0.1335,1.44140625,5.4853515625,-6.0859375
0.134,2.6025390625,4.5244140625,-6.4462890625
0.1345,3.84375,3.2431640625,-6.7265625
0.135,4.9248046875,1.921875,-6.7265625
0.1355,5.5654296875,0.8408203125,-6.56640625
0.136,5.7255859375,0.1201171875,-6.40625
0.1365,5.6455078125,-0.9208984375,-5.7255859375
0.137,5.4052734375,-1.9619140625,-4.64453125
0.1375,5.1650390625,-3.36328125,-3.443359375
0.138,4.884765625,-4.484375,-2.1220703125
0.1385,4.6044921875,-5.28515625,-1.201171875
0.139,4.1240234375,-5.8056640625,-0.400390625
0.1395,3.2431640625,-5.9658203125,0.640625
0.14,1.9619140625,-6.166015625,2.0419921875
0.1405,0.6005859375,-6.24609375,3.5234375
0.141,-0.48046875,-6.326171875,4.6044921875
0.1415,-1.0810546875,-6.40625,5.365234375
0.142,-2.001953125,-5.8857421875,5.8857421875
0.1425,-3.2431640625,-4.8046875,6.2861328125
0.143,-4.5244140625,-3.5634765625,6.5263671875
0.1435,-5.4052734375,-2.2822265625,6.4462890625
0.144,-5.845703125,-1.361328125,6.326171875
0.1445,-5.92578125,-0.640625,5.9658203125
0.145,-5.8056640625,0.2802734375,5.28515625
0.1455,-5.6455078125,1.44140625,4.1240234375
0.146,-5.4052734375,2.8427734375,2.8427734375
0.1465,-5.0849609375,3.84375,1.7216796875
0.147,-4.8046875,4.6044921875,0.880859375
0.1475,-4.1640625,4.96484375,0.080078125
0.148,-3.1630859375,5.0849609375,-1.12109375
0.1485,-2.001953125,5.365234375,-2.5224609375
0.149,-0.720703125,5.4052734375,-3.8037109375
0.1495,0.1201171875,5.5654296875,-4.724609375
0.15,0.7607421875,5.5654296875,-5.4052734375
0.1505,1.7216796875,4.96484375,-5.92578125
0.151,2.9228515625,3.84375,-6.24609375
0.1515,4.1240234375,2.6025390625,-6.40625
0.152,4.8046875,1.44140625,-6.2861328125
0.1525,5.2451171875,0.640625,-6.24609375
0.153,5.28515625,-0.16015625,-5.845703125
0.1535,5.0849609375,-1.12109375,-5.125
0.154,4.96484375,-2.162109375,-4.083984375
0.1545,4.8046875,-3.4033203125,-2.8828125
0.155,4.5244140625,-4.3642578125,-1.8818359375
0.1555,4.3642578125,-5.0849609375,-1.1611328125
0.156,3.7236328125,-5.4052734375,-0.3203125
0.1565,2.72265625,-5.6455078125,0.9208984375
0.157,1.5615234375,-5.8857421875,2.2822265625
0.1575,0.5205078125,-5.9658203125,3.443359375
0.158,-0.2802734375,-6.2060546875,4.3642578125
0.1585,-1.0009765625,-6.1259765625,5.0849609375
0.159,-2.0419921875,-5.4453125,5.5654296875
0.1595,-3.2431640625,-4.4443359375,5.92578125
0.16,-4.3642578125,-3.203125,6.0859375
0.1605,-5.0849609375,-2.2421875,6.0859375
0.161,-5.4453125,-1.5615234375,6.0458984375
0.1615,-5.4853515625,-0.80078125,5.60546875
0.162,-5.4052734375,0.2802734375,4.8447265625
0.1625,-5.28515625,1.4814453125,3.84375
0.163,-5.125,2.642578125,2.6826171875
0.1635,-4.96484375,3.5634765625,1.841796875
0.164,-4.64453125,4.2041015625,1.0810546875
0.1645,-3.9638671875,4.564453125,0.16015625
0.165,-2.962890625,4.8447265625,-1.1611328125
0.1655,-1.8017578125,5.0849609375,-2.5224609375
0.166,-0.9208984375,5.28515625,-3.603515625
0.1665,-0.2802734375,5.5654296875,-4.5244140625
0.167,0.6806640625,5.28515625,-5.125
0.1675,1.76171875,4.484375,-5.6455078125
0.168,3.0029296875,3.443359375,-5.9658203125
0.1685,3.9638671875,2.2421875,-6.1259765625
0.169,4.6044921875,1.361328125,-6.1259765625
0.1695,4.9248046875,0.720703125,-6.0458984375
0.17,4.96484375,-0.16015625,-5.525390625
0.1705,4.884765625,-1.1611328125,-4.6845703125
0.171,4.8046875,-2.4423828125,-3.6435546875
0.1715,4.6044921875,-3.5234375,-2.5625
0.172,4.5244140625,-4.3642578125,-1.841796875
0.1725,4.1240234375,-4.884765625,-1.0009765625
0.173,3.283203125,-5.205078125,0.0400390625
0.1735,2.2822265625,-5.5654296875,1.3212890625
0.174,1.201171875,-5.765625,2.5625
0.1745,0.400390625,-5.9658203125,3.6435546875
0.175,-0.3603515625,-6.1259765625,4.484375
0.1755,-1.28125,-5.765625,5.0849609375
0.176,-2.4423828125,-4.8447265625,5.525390625
0.1765,-3.6435546875,-3.84375,5.845703125
0.177,-4.5244140625,-2.6826171875,5.8857421875
0.1775,-5.0849609375,-2.0419921875,5.8857421875
0.178,-5.28515625,-1.2412109375,5.7255859375
0.1785,-5.2451171875,-0.400390625,5.125
0.179,-5.205078125,0.80078125,4.2841796875
0.1795,-5.125,2.0419921875,3.1630859375
0.18,-4.96484375,3.04296875,2.2421875
0.1805,-4.7646484375,3.84375,1.44140625
0.181,-4.244140625,4.2841796875,0.6005859375
0.1815,-3.36328125,4.6044921875,-0.6005859375
0.182,-2.3623046875,4.96484375,-1.8818359375
0.1825,-1.3212890625,5.125,-3.0830078125
0.183,-0.640625,5.4052734375,-4.0439453125
0.1835,0.240234375,5.4052734375,-4.8046875
0.184,1.2412109375,4.8046875,-5.3251953125
0.1845,2.482421875,3.84375,-5.765625
0.185,3.603515625,2.642578125,-6.0458984375
0.1855,4.3642578125,1.6416015625,-6.0859375
0.186,4.8046875,1.0009765625,-6.0859375
0.1865,4.884765625,0.2802734375,-5.685546875
0.187,4.8046875,-0.80078125,-4.96484375
0.1875,4.8046875,-1.9619140625,-4.00390625
0.188,4.6845703125,-3.1630859375,-2.9228515625
0.1885,4.5244140625,-4.083984375,-2.0419921875
0.189,4.2841796875,-4.7646484375,-1.3212890625
0.1895,3.6435546875,-5.0849609375,-0.4404296875
0.19,2.6826171875,-5.4453125,0.8408203125
0.1905,1.5615234375,-5.7255859375,2.2421875
0.191,0.640625,-5.92578125,3.3232421875
0.1915,0.0,-6.166015625,4.244140625
0.192,-1.0009765625,-5.92578125,4.96484375
0.1925,-2.1220703125,-5.125,5.4052734375
0.193,-3.36328125,-4.1240234375,5.8056640625
0.1935,-4.3642578125,-2.8828125,5.92578125
0.194,-5.0048828125,-2.08203125,6.005859375
0.1945,-5.28515625,-1.361328125,5.845703125
0.195,-5.3251953125,-0.6005859375,5.365234375
0.1955,-5.2451171875,0.560546875,4.484375
0.196,-5.205078125,1.841796875,3.443359375
0.1965,-5.0048828125,2.9228515625,2.3623046875
0.197,-4.8447265625,3.8037109375,1.5615234375
0.1975,-4.404296875,4.2841796875,0.7607421875
0.198,-3.5634765625,4.6044921875,-0.3603515625
0.1985,-2.5625,4.96484375,-1.6416015625
0.199,-1.44140625,5.125,-2.962890625
0.1995,-0.6806640625,5.4052734375,-3.9638671875
0.2,0.1201171875,5.4853515625,-4.8046875
0.2005,1.0810546875,4.96484375,-5.4052734375
0.201,2.3623046875,3.9638671875,-5.8857421875
0.2015,3.5234375,2.7626953125,-6.2060546875
0.202,4.404296875,1.76171875,-6.1259765625
0.2025,4.9248046875,1.0009765625,-6.1259765625
0.203,5.044921875,0.2802734375,-5.8056640625
0.2035,4.96484375,-0.720703125,-5.125
0.204,4.9248046875,-1.921875,-4.1640625
0.2045,4.8046875,-3.203125,-3.0029296875
0.205,4.6044921875,-4.1640625,-2.001953125
0.2055,4.404296875,-4.884765625,-1.28125
0.206,3.763671875,-5.2451171875,-0.400390625
0.2065,2.7626953125,-5.4853515625,0.8408203125
0.207,1.6015625,-5.8056640625,2.2421875
0.2075,0.560546875,-5.9658203125,3.443359375
0.208,-0.2802734375,-6.24609375,4.3642578125
0.2085,-1.041015625,-6.1259765625,5.125
0.209,-2.162109375,-5.365234375,5.60546875
0.2095,-3.5634765625,-4.2841796875,6.0458984375
0.21,-4.564453125,-2.962890625,6.1259765625
0.2105,-5.2451171875,-1.9619140625,6.0859375
0.211,-5.5654296875,-1.2412109375,6.005859375
0.2115,-5.525390625,-0.4404296875,5.4853515625
0.212,-5.4052734375,0.6806640625,4.6044921875
0.2125,-5.3251953125,1.9619140625,3.4833984375
0.213,-5.125,3.1630859375,2.322265625
0.2135,-4.884765625,4.00390625,1.4013671875
0.214,-4.5244140625,4.564453125,0.6005859375
0.2145,-3.7236328125,4.8447265625,-0.4404296875
0.215,-2.5625,5.0849609375,-1.76171875
0.2155,-1.3212890625,5.3251953125,-3.203125
0.216,-0.4404296875,5.4453125,-4.2041015625
0.2165,0.3203125,5.60546875,-5.0849609375
0.217,1.2412109375,5.0849609375,-5.6455078125
0.2175,2.5224609375,4.244140625,-6.0859375
0.218,3.68359375,3.0029296875,-6.3662109375
0.2185,4.6845703125,1.76171875,-6.40625
0.219,5.205078125,0.8408203125,-6.2861328125
0.2195,5.365234375,0.1201171875,-6.0458984375
0.22,5.2451171875,-0.880859375,-5.365234375
0.2205,5.0849609375,-2.08203125,-4.244140625
0.221,4.96484375,-3.4033203125,-3.0830078125
0.2215,4.724609375,-4.5244140625,-1.921875
0.222,4.484375,-5.205078125,-1.12109375
0.2225,3.84375,-5.6455078125,-0.2802734375
0.223,2.8427734375,-5.845703125,0.9609375
0.2235,1.5615234375,-6.0859375,2.4423828125
0.224,0.3603515625,-6.166015625,3.763671875
0.2245,-0.560546875,-6.3662109375,4.724609375
0.225,-1.2412109375,-6.3662109375,5.4453125
0.2255,-2.4423828125,-5.765625,5.9658203125
0.226,-3.7236328125,-4.3642578125,6.3662109375
0.2265,-4.8447265625,-3.0830078125,6.5263671875
0.227,-5.6455078125,-1.841796875,6.40625
0.2275,-6.005859375,-1.0009765625,6.24609375
0.228,-5.9658203125,-0.2001953125,5.7255859375
0.2285,-5.8056640625,0.9609375,4.8046875
