wavelength,x,y,z
0.0,-20.494995117188,7.6925048828125,11.896606445312
0.0005,-19.894409179688,3.5684814453125,15.420043945312
0.001,-18.412963867188,-0.3153076171875,17.782348632812
0.0015,-16.451049804688,-3.7987060546875,19.303833007812
0.002,-14.048706054688,-7.1219482421875,20.344848632812
0.0025,-10.405151367188,-10.525268554688,20.184692382812
0.003,-6.4412841796875,-14.088745117188,19.944458007812
0.0035,-2.2772216796875,-17.091674804688,18.903442382812
0.004,2.5274658203125,-19.093627929688,16.380981445312
0.0045,5.5704345703125,-19.814331054688,14.298950195312
0.005,8.9737548828125,-20.294799804688,11.656372070312
0.0055,12.256958007812,-20.214721679688,8.4932861328125
0.006,15.580200195312,-19.373901367188,4.4893798828125
0.0065,18.062622070312,-17.892456054688,0.6456298828125
0.007,19.704223632812,-15.730346679688,-3.1580810546875
0.0075,20.224731445312,-13.127807617188,-6.3211669921875
0.008,20.304809570312,-9.7244873046875,-9.8045654296875
0.0085,20.224731445312,-6.3612060546875,-13.247924804688
0.009,19.664184570312,-2.6776123046875,-16.370971679688
0.0095,17.742309570312,1.4464111328125,-18.533081054688
0.01,15.500122070312,4.7696533203125,-19.574096679688
0.0105,12.817504882812,8.2530517578125,-20.454956054688
0.011,9.1339111328125,11.736450195312,-20.334838867188
0.0115,4.7696533203125,15.219848632812,-19.574096679688
0.012,0.5655517578125,17.942504882812,-18.252807617188
0.0125,-3.8787841796875,19.704223632812,-15.930541992188
0.013,-6.9217529296875,20.184692382812,-13.528198242188
0.0135,-10.485229492188,20.424926757812,-10.525268554688
0.014,-13.848510742188,20.264770507812,-7.2020263671875
0.0145,-16.891479492188,19.263793945312,-3.2781982421875
0.015,-19.213745117188,17.261840820312,1.0059814453125
0.0155,-20.454956054688,15.019653320312,4.4493408203125
0.016,-20.975463867188,12.136840820312,7.8526611328125
0.0165,-20.935424804688,8.4132080078125,11.576293945312
0.017,-20.494995117188,4.5294189453125,15.019653320312
0.0175,-19.574096679688,0.7657470703125,17.902465820312
0.018,-17.452026367188,-3.3582763671875,19.864379882812
0.0185,-14.849487304688,-6.5213623046875,20.505004882812
0.019,-11.806518554688,-10.044799804688,21.105590820312
0.0195,-7.7225341796875,-13.808471679688,20.825317382812
0.02,-3.1180419921875,-16.971557617188,19.584106445312
0.0205,1.5264892578125,-19.213745117188,17.462036132812
0.021,5.3702392578125,-20.655151367188,15.380004882812
0.0215,8.5333251953125,-20.895385742188,12.617309570312
0.022,12.056762695312,-20.815307617188,9.2540283203125
0.0225,15.420043945312,-20.374877929688,5.6104736328125
0.023,18.302856445312,-19.053588867188,1.5665283203125
0.0235,20.184692382812,-16.611206054688,-2.7576904296875
0.024,20.865356445312,-14.128784179688,-5.8807373046875
0.0245,21.265747070312,-11.045776367188,-9.4842529296875
0.025,21.065551757812,-7.1619873046875,-13.167846679688
0.0255,20.344848632812,-3.3983154296875,-16.290893554688
0.026,18.823364257812,0.6055908203125,-18.653198242188
0.0265,16.621215820312,4.5294189453125,-20.454956054688
0.027,13.618286132812,7.7325439453125,-20.695190429688
0.0275,10.335083007812,11.215942382812,-20.935424804688
0.028,6.0909423828125,14.979614257812,-20.535034179688
0.0285,1.5264892578125,17.902465820312,-19.173706054688
0.029,-3.0379638671875,19.704223632812,-16.651245117188
0.0295,-6.4012451171875,20.705200195312,-14.569213867188
0.03,-9.7645263671875,20.945434570312,-11.686401367188
0.0305,-13.207885742188,20.625122070312,-8.1629638671875
0.031,-16.290893554688,19.904418945312,-4.5194091796875
0.0315,-18.933471679688,18.222778320312,-0.3153076171875
0.032,-20.575073242188,15.780395507812,3.8087158203125
0.0325,-20.855346679688,12.937622070312,6.8516845703125
0.033,-21.215698242188,9.7344970703125,10.495239257812
0.0335,-20.895385742188,5.6505126953125,14.298950195312
0.034,-20.094604492188,2.0069580078125,17.221801757812
0.0345,-18.092651367188,-1.9969482421875,19.183715820312
0.035,-15.970581054688,-5.6405029296875,20.665161132812
0.0355,-12.807495117188,-8.9237060546875,20.985473632812
0.036,-9.0838623046875,-12.447143554688,20.865356445312
0.0365,-4.9197998046875,-15.850463867188,20.184692382812
0.037,-0.1551513671875,-18.653198242188,18.422973632812
0.0375,4.1690673828125,-20.214721679688,15.980590820312
0.038,7.2520751953125,-20.655151367188,13.618286132812
0.0385,10.735473632812,-21.015502929688,10.695434570312
0.039,14.379028320312,-20.494995117188,6.6915283203125
0.0395,17.141723632812,-19.534057617188,3.1680908203125
0.04,19.463989257812,-17.572143554688,-1.0760498046875
0.0405,20.945434570312,-15.249877929688,-4.8797607421875
0.041,21.025512695312,-12.126831054688,-8.1229248046875
0.0415,21.225708007812,-8.7235107421875,-11.766479492188
0.042,20.705200195312,-4.7196044921875,-15.249877929688
0.0425,19.664184570312,-0.7957763671875,-18.132690429688
0.043,17.301879882812,3.1680908203125,-19.734252929688
0.0435,14.939575195312,6.4512939453125,-20.695190429688
0.044,11.736450195312,9.9747314453125,-21.135620117188
0.0445,7.3321533203125,13.898559570312,-20.655151367188
0.045,3.4483642578125,16.741333007812,-19.814331054688
0.0455,-1.4764404296875,19.223754882812,-17.652221679688
0.046,-5.4803466796875,20.665161132812,-15.410034179688
0.0465,-8.5233154296875,20.745239257812,-12.647338867188
0.047,-11.926635742188,21.065551757812,-9.7645263671875
0.0475,-15.690307617188,20.344848632812,-5.5203857421875
0.048,-18.292846679688,18.943481445312,-1.6365966796875
0.0485,-20.174682617188,16.741333007812,2.4073486328125
0.049,-21.295776367188,14.298950195312,5.9708251953125
0.0495,-21.415893554688,10.935668945312,9.4542236328125
0.05,-21.415893554688,7.0518798828125,13.418090820312
0.0505,-20.735229492188,3.4483642578125,16.421020507812
0.051,-19.293823242188,-0.8358154296875,19.183715820312
0.0515,-16.811401367188,-4.7596435546875,20.705200195312
0.052,-14.048706054688,-7.9227294921875,21.105590820312
0.0525,-10.925659179688,-11.406127929688,21.626098632812
0.053,-5.8406982421875,-15.570190429688,20.785278320312
0.0535,-1.6365966796875,-18.172729492188,19.383911132812
0.054,2.9278564453125,-20.134643554688,17.101684570312
0.0545,6.6915283203125,-21.335815429688,14.779418945312
0.055,9.9747314453125,-21.135620117188,11.536254882812
0.0555,13.418090820312,-21.215698242188,8.3731689453125
0.056,16.861450195312,-20.454956054688,4.4093017578125
0.0565,19.544067382812,-18.573120117188,-0.1951904296875
0.057,21.025512695312,-16.210815429688,-3.9989013671875
0.0575,21.626098632812,-13.448120117188,-7.4022216796875
0.058,21.786254882812,-10.044799804688,-10.925659179688
0.0585,21.385864257812,-5.4803466796875,-15.129760742188
0.059,20.505004882812,-2.0770263671875,-17.692260742188
0.0595,18.583129882812,2.1671142578125,-19.934448242188
0.06,16.060668945312,6.0509033203125,-21.415893554688
0.0605,12.537231445312,9.3341064453125,-21.255737304688
0.061,9.3341064453125,12.817504882812,-21.656127929688
0.0615,4.3292236328125,16.701293945312,-20.655151367188
0.062,-0.5155029296875,19.303833007812,-18.653198242188
0.0625,-4.4793701171875,20.705200195312,-16.370971679688
0.063,-8.0828857421875,21.586059570312,-13.888549804688
0.0635,-11.526245117188,21.425903320312,-10.445190429688
0.064,-15.169799804688,20.905395507812,-6.5614013671875
0.0645,-17.972534179688,19.984497070312,-3.0780029296875
0.065,-20.414916992188,17.782348632812,1.6065673828125
0.0655,-21.616088867188,15.219848632812,5.2901611328125
0.066,-21.776245117188,12.016723632812,8.7735595703125
0.0665,-22.056518554688,8.7735595703125,12.296997070312
0.067,-21.375854492188,4.0889892578125,16.340942382812
0.0675,-20.054565429688,0.2452392578125,18.903442382812
0.068,-17.892456054688,-3.6385498046875,20.625122070312
0.0685,-15.450073242188,-7.3621826171875,21.906372070312
0.069,-11.566284179688,-10.885620117188,21.626098632812
0.0695,-7.6424560546875,-14.569213867188,21.505981445312
0.07,-3.2381591796875,-17.772338867188,20.545043945312
0.0705,2.0469970703125,-20.214721679688,17.982543945312
0.071,5.7305908203125,-21.295776367188,15.620239257812
0.0715,9.2139892578125,-21.736206054688,12.817504882812
0.072,12.617309570312,-21.776245117188,9.7344970703125
0.0725,16.501098632812,-20.855346679688,5.0899658203125
0.073,19.063598632812,-19.574096679688,1.2862548828125
0.0735,20.985473632812,-17.331909179688,-2.8778076171875
0.074,21.946411132812,-14.609252929688,-6.4813232421875
0.0745,21.826293945312,-10.925659179688,-10.084838867188
0.075,21.906372070312,-7.4422607421875,-13.728393554688
0.0755,21.265747070312,-3.2781982421875,-17.171752929688
0.076,19.383911132812,1.1260986328125,-19.734252929688
0.0765,16.901489257812,4.8096923828125,-20.895385742188
0.077,14.218872070312,8.3731689453125,-21.856323242188
0.0775,10.455200195312,11.896606445312,-21.776245117188
0.078,5.4903564453125,15.940551757812,-20.975463867188
0.0785,1.5665283203125,18.583129882812,-19.854370117188
0.079,-3.4383544921875,20.625122070312,-17.291870117188
0.0795,-7.0418701171875,21.505981445312,-14.769409179688
0.08,-10.565307617188,21.465942382812,-11.486206054688
0.0805,-13.808471679688,21.505981445312,-8.5233154296875
0.081,-17.411987304688,20.464965820312,-3.9989013671875
0.0815,-19.894409179688,18.503051757812,0.4854736328125
0.082,-21.215698242188,16.140747070312,4.0089111328125
0.0825,-22.016479492188,13.378051757812,7.6524658203125
0.083,-21.856323242188,9.6544189453125,11.215942382812
0.0835,-21.536010742188,5.4903564453125,15.099731445312
0.084,-20.775268554688,1.9268798828125,17.942504882812
0.0845,-18.733276367188,-2.5174560546875,20.344848632812
0.085,-16.010620117188,-6.1209716796875,21.265747070312
0.0855,-12.927612304688,-9.6444091796875,21.746215820312
0.086,-9.4842529296875,-13.087768554688,21.826293945312
0.0865,-4.1990966796875,-16.971557617188,20.585083007812
0.087,0.3653564453125,-19.373901367188,18.703247070312
0.0875,4.4893798828125,-20.975463867188,16.501098632812
0.088,8.0128173828125,-21.656127929688,13.858520507812
0.0885,11.656372070312,-21.455932617188,10.214965820312
0.089,15.019653320312,-21.215698242188,6.8516845703125
0.0895,18.062622070312,-20.134643554688,2.8477783203125
0.09,20.424926757812,-17.772338867188,-1.8768310546875
0.0905,21.305786132812,-15.329956054688,-5.1199951171875
0.091,21.826293945312,-12.246948242188,-8.7235107421875
0.0915,21.746215820312,-8.7235107421875,-12.206909179688
0.092,21.065551757812,-4.3192138671875,-16.010620117188
0.0925,19.864379882812,-0.6356201171875,-18.493041992188
0.093,17.782348632812,3.4483642578125,-20.454956054688
0.0935,15.019653320312,7.0518798828125,-21.295776367188
0.094,11.336059570312,10.535278320312,-21.255737304688
0.0945,7.6925048828125,14.178833007812,-21.295776367188
0.095,2.8878173828125,17.582153320312,-20.134643554688
0.0955,-2.1170654296875,19.784301757812,-17.572143554688
0.096,-5.4803466796875,20.825317382812,-15.490112304688
0.0965,-9.0037841796875,21.425903320312,-12.847534179688
0.097,-12.487182617188,21.105590820312,-9.3641357421875
0.0975,-15.890502929688,20.464965820312,-5.3201904296875
0.098,-18.653198242188,19.143676757812,-1.5565185546875
0.0985,-20.494995117188,16.781372070312,2.8077392578125
0.099,-21.135620117188,14.138793945312,6.0108642578125
0.0995,-21.415893554688,10.775512695312,9.6544189453125
0.1,-21.415893554688,7.2921142578125,13.137817382812
0.1005,-20.655151367188,3.1680908203125,16.621215820312
0.101,-18.933471679688,-0.9959716796875,18.943481445312
0.1015,-16.731323242188,-4.5194091796875,20.344848632812
0.102,-14.088745117188,-8.0028076171875,21.265747070312
0.1025,-10.285034179688,-11.486206054688,21.025512695312
0.103,-6.1209716796875,-15.089721679688,20.585083007812
0.1035,-1.7567138671875,-18.012573242188,19.343872070312
0.104,3.1680908203125,-20.014526367188,16.741333007812
0.1045,6.2510986328125,-20.695190429688,14.539184570312
0.105,9.7344970703125,-21.135620117188,11.656372070312
0.1055,13.177856445312,-20.935424804688,8.3331298828125
0.106,16.461059570312,-20.014526367188,4.2491455078125
0.1065,18.983520507812,-18.252807617188,0.1651611328125
0.107,20.545043945312,-16.090698242188,-3.7186279296875
0.1075,21.065551757812,-13.247924804688,-7.0018310546875
0.108,21.105590820312,-9.7244873046875,-10.565307617188
0.1085,20.865356445312,-6.0408935546875,-14.088745117188
0.109,20.144653320312,-2.2371826171875,-17.171752929688
0.1095,17.982543945312,1.9669189453125,-19.253784179688
0.11,15.620239257812,5.3302001953125,-20.214721679688
0.1105,12.777465820312,8.8936767578125,-21.015502929688
0.111,8.9337158203125,12.457153320312,-20.815307617188
0.1115,4.4493408203125,15.900512695312,-19.894409179688
0.112,0.0450439453125,18.503051757812,-18.332885742188
0.1125,-4.2791748046875,20.224731445312,-16.010620117188
0.113,-7.4822998046875,20.625122070312,-13.528198242188
0.1135,-10.965698242188,20.785278320312,-10.405151367188
0.114,-14.409057617188,20.545043945312,-6.9617919921875
0.1145,-17.371948242188,19.463989257812,-2.9979248046875
0.115,-19.614135742188,17.301879882812,1.3262939453125
0.1155,-20.735229492188,14.979614257812,4.7696533203125
0.116,-21.255737304688,12.016723632812,8.2530517578125
0.1165,-21.175659179688,8.2930908203125,11.936645507812
0.117,-20.655151367188,4.4093017578125,15.380004882812
0.1175,-19.574096679688,0.6055908203125,18.182739257812
0.118,-17.411987304688,-3.5584716796875,20.104614257812
0.1185,-14.729370117188,-6.7615966796875,20.665161132812
0.119,-11.686401367188,-10.285034179688,21.145629882812
0.1195,-7.5623779296875,-14.048706054688,20.945434570312
0.12,-2.9979248046875,-17.131713867188,19.784301757812
0.1205,1.6065673828125,-19.373901367188,17.421997070312
0.121,5.4102783203125,-20.775268554688,15.380004882812
0.1215,8.7335205078125,-21.015502929688,12.577270507812
0.122,12.176879882812,-20.895385742188,9.2540283203125
0.1225,15.580200195312,-20.454956054688,5.6104736328125
0.123,18.422973632812,-19.053588867188,1.4464111328125
0.1235,20.384887695312,-16.651245117188,-2.8778076171875
0.124,20.985473632812,-14.128784179688,-6.0408935546875
0.1245,21.425903320312,-10.925659179688,-9.6444091796875
0.125,21.185668945312,-6.9617919921875,-13.448120117188
0.1255,20.464965820312,-3.1981201171875,-16.491088867188
0.126,18.823364257812,0.7657470703125,-18.853393554688
0.1265,16.621215820312,4.7296142578125,-20.575073242188
0.127,13.538208007812,7.9727783203125,-20.855346679688
0.1275,10.214965820312,11.456176757812,-21.095581054688
0.128,5.8907470703125,15.339965820312,-20.575073242188
0.1285,1.2862548828125,18.142700195312,-19.213745117188
0.129,-3.3182373046875,19.904418945312,-16.651245117188
0.1295,-6.6014404296875,20.865356445312,-14.489135742188
0.13,-10.084838867188,21.105590820312,-11.526245117188
0.1305,-13.648315429688,20.785278320312,-7.8426513671875
0.131,-16.651245117188,20.024536132812,-4.3192138671875
0.1315,-19.253784179688,18.222778320312,0.0850830078125
0.132,-20.935424804688,15.780395507812,4.1290283203125
0.1325,-21.135620117188,12.857543945312,7.2921142578125
0.133,-21.495971679688,9.6143798828125,10.895629882812
0.1335,-21.055541992188,5.3702392578125,14.739379882812
0.134,-20.214721679688,1.6065673828125,17.662231445312
0.1345,-18.052612304688,-2.3572998046875,19.504028320312
0.135,-15.850463867188,-5.9207763671875,20.945434570312
0.1355,-12.687377929688,-9.3240966796875,21.185668945312
0.136,-8.8436279296875,-12.967651367188,21.065551757812
0.1365,-4.6795654296875,-16.170776367188,20.224731445312
0.137,0.3253173828125,-18.933471679688,18.422973632812
0.1375,4.4893798828125,-20.494995117188,15.980590820312
0.138,7.6124267578125,-20.855346679688,13.458129882812
0.1385,11.055786132812,-21.215698242188,10.615356445312
0.139,14.859497070312,-20.615112304688,6.4512939453125
0.1395,17.502075195312,-19.574096679688,2.8477783203125
0.14,19.704223632812,-17.572143554688,-1.3162841796875
0.1405,21.145629882812,-15.209838867188,-5.1199951171875
0.141,21.185668945312,-12.006713867188,-8.3631591796875
0.1415,21.385864257812,-8.4832763671875,-12.086791992188
0.142,20.785278320312,-4.5994873046875,-15.450073242188
0.1425,19.584106445312,-0.5155029296875,-18.332885742188
0.143,17.261840820312,3.4083251953125,-19.934448242188
0.1435,14.779418945312,6.6915283203125,-20.775268554688
0.144,11.576293945312,10.174926757812,-21.175659179688
0.1445,7.0518798828125,14.138793945312,-20.655151367188
0.145,3.1680908203125,16.981567382812,-19.734252929688
0.1455,-1.6766357421875,19.263793945312,-17.532104492188
0.146,-5.6405029296875,20.705200195312,-15.289916992188
0.1465,-8.7235107421875,20.705200195312,-12.407104492188
0.147,-12.046752929688,20.985473632812,-9.6043701171875
0.1475,-15.690307617188,20.224731445312,-5.4403076171875
0.148,-18.292846679688,18.783325195312,-1.4364013671875
0.1485,-20.054565429688,16.581176757812,2.5274658203125
0.149,-21.055541992188,14.098754882812,6.0108642578125
0.1495,-21.175659179688,10.735473632812,9.4542236328125
0.15,-21.135620117188,6.7716064453125,13.418090820312
0.1505,-20.494995117188,3.3282470703125,16.300903320312
0.151,-18.973510742188,-0.8758544921875,18.903442382812
0.1515,-16.531127929688,-4.7596435546875,20.464965820312
0.152,-13.728393554688,-7.9227294921875,20.745239257812
0.1525,-10.765502929688,-11.286010742188,21.265747070312
0.153,-5.7606201171875,-15.410034179688,20.464965820312
0.1535,-1.5164794921875,-17.932495117188,19.023559570312
0.154,2.8077392578125,-19.694213867188,16.781372070312
0.1545,6.4512939453125,-20.855346679688,14.539184570312
0.155,9.7745361328125,-20.775268554688,11.376098632812
0.1555,13.177856445312,-20.695190429688,8.0928955078125
0.156,16.340942382812,-20.014526367188,4.4493408203125
0.1565,19.023559570312,-18.132690429688,0.0050048828125
0.157,20.424926757812,-15.850463867188,-3.7987060546875
0.1575,20.905395507812,-13.007690429688,-7.0418701171875
0.158,21.185668945312,-9.9246826171875,-10.445190429688
0.1585,20.705200195312,-5.4803466796875,-14.529174804688
0.159,19.864379882812,-2.1170654296875,-17.051635742188
0.1595,17.982543945312,1.8868408203125,-19.093627929688
0.16,15.620239257812,5.6505126953125,-20.575073242188
0.1605,12.216918945312,8.8936767578125,-20.494995117188
0.161,9.0938720703125,12.256958007812,-20.815307617188
0.1615,4.4893798828125,15.940551757812,-19.974487304688
0.162,-0.3553466796875,18.543090820312,-18.012573242188
0.1625,-4.0389404296875,19.864379882812,-15.890502929688
0.163,-7.5223388671875,20.625122070312,-13.488159179688
0.1635,-10.845581054688,20.665161132812,-10.445190429688
0.164,-14.489135742188,20.144653320312,-6.4412841796875
0.1645,-17.051635742188,19.303833007812,-3.1981201171875
0.165,-19.333862304688,17.261840820312,1.1661376953125
0.1655,-20.575073242188,14.779418945312,4.7696533203125
0.166,-20.695190429688,11.656372070312,8.0128173828125
0.1665,-21.015502929688,8.6534423828125,11.496215820312
0.167,-20.454956054688,4.2891845703125,15.299926757812
0.1675,-19.213745117188,0.4854736328125,17.902465820312
0.168,-17.131713867188,-3.1981201171875,19.383911132812
0.1685,-14.889526367188,-6.6815185546875,20.705200195312
0.169,-11.446166992188,-10.004760742188,20.625122070312
0.1695,-7.3621826171875,-13.728393554688,20.424926757812
0.17,-3.4383544921875,-16.651245117188,19.584106445312
0.1705,1.5665283203125,-18.933471679688,17.261840820312
0.171,5.0499267578125,-20.174682617188,15.099731445312
0.1715,8.2930908203125,-20.494995117188,12.417114257812
0.172,11.536254882812,-20.695190429688,9.6544189453125
0.1725,15.339965820312,-19.894409179688,5.2501220703125
0.173,17.782348632812,-18.573120117188,1.5665283203125
0.1735,19.504028320312,-16.571166992188,-2.1971435546875
0.174,20.625122070312,-14.088745117188,-5.6405029296875
0.1745,20.545043945312,-10.765502929688,-9.0037841796875
0.175,20.665161132812,-7.2420654296875,-12.687377929688
0.1755,20.144653320312,-3.5985107421875,-15.810424804688
0.176,18.503051757812,0.5655517578125,-18.332885742188
0.1765,16.220825195312,4.0889892578125,-19.574096679688
0.177,13.658325195312,7.4122314453125,-20.454956054688
0.1775,10.415161132812,10.815551757812,-20.655151367188
0.178,5.5704345703125,14.819458007812,-19.894409179688
