wavelength,x,y,z
0.0,-19.31884765625,7.86767578125,10.63037109375
0.0005,-18.91845703125,4.06396484375,14.03369140625
0.001,-17.87744140625,0.58056640625,16.51611328125
0.0015,-16.19580078125,-3.06298828125,18.43798828125
0.002,-13.95361328125,-6.02587890625,19.23876953125
0.0025,-11.03076171875,-9.10888671875,19.51904296875
0.003,-7.42724609375,-12.55224609375,19.43896484375
0.0035,-3.14306640625,-15.63525390625,18.31787109375
0.004,1.18115234375,-17.59716796875,16.27587890625
0.0045,4.30419921875,-18.83837890625,14.59423828125
0.005,7.38720703125,-19.35888671875,12.23193359375
0.0055,10.59033203125,-19.11865234375,9.02880859375
0.006,13.95361328125,-18.55810546875,5.34521484375
0.0065,16.63623046875,-17.31689453125,1.54150390625
0.007,18.55810546875,-15.23486328125,-2.54248046875
0.0075,19.19873046875,-12.95263671875,-5.42529296875
0.008,19.55908203125,-10.06982421875,-8.70849609375
0.0085,19.43896484375,-6.50634765625,-12.23193359375
0.009,18.87841796875,-2.90283203125,-15.27490234375
0.0095,17.31689453125,0.82080078125,-17.39697265625
0.01,15.51513671875,4.22412109375,-19.03857421875
0.0105,12.95263671875,7.30712890625,-19.59912109375
0.011,9.66943359375,10.47021484375,-19.55908203125
0.0115,5.74560546875,13.87353515625,-19.19873046875
0.012,1.54150390625,16.67626953125,-17.95751953125
0.0125,-2.70263671875,18.43798828125,-15.71533203125
0.013,-5.62548828125,19.19873046875,-13.79345703125
0.0135,-8.82861328125,19.51904296875,-11.23095703125
0.014,-12.23193359375,19.15869140625,-7.54736328125
0.0145,-15.23486328125,18.35791015625,-3.90380859375
0.015,-17.59716796875,16.63623046875,0.10009765625
0.0155,-19.31884765625,14.55419921875,3.86376953125
0.016,-19.59912109375,11.91162109375,6.86669921875
0.0165,-19.83935546875,8.70849609375,10.22998046875
0.017,-19.47900390625,4.94482421875,13.71337890625
0.0175,-18.71826171875,1.30126953125,16.59619140625
0.018,-16.75634765625,-2.46240234375,18.39794921875
0.0185,-14.79443359375,-5.54541015625,19.55908203125
0.019,-12.15185546875,-8.66845703125,20.11962890625
0.0195,-8.30810546875,-12.11181640625,19.75927734375
0.02,-4.30419921875,-15.07470703125,18.91845703125
0.0205,0.02001953125,-17.51708984375,17.27685546875
0.021,3.90380859375,-19.07861328125,15.23486328125
0.0215,6.70654296875,-19.51904296875,12.83251953125
0.022,9.86962890625,-19.55908203125,10.22998046875
0.0225,13.47314453125,-19.03857421875,6.22607421875
0.023,16.19580078125,-17.91748046875,2.50244140625
0.0235,18.19775390625,-15.95556640625,-1.46142578125
0.024,19.51904296875,-13.87353515625,-4.82470703125
0.0245,19.71923828125,-11.07080078125,-7.82763671875
0.025,19.59912109375,-7.54736328125,-11.35107421875
0.0255,19.15869140625,-4.10400390625,-14.35400390625
0.026,17.99755859375,-0.30029296875,-16.99658203125
0.0265,15.99560546875,3.46337890625,-18.71826171875
0.027,13.67333984375,6.30615234375,-19.27880859375
0.0275,11.07080078125,9.34912109375,-19.83935546875
0.028,6.74658203125,13.11279296875,-19.35888671875
0.0285,2.90283203125,15.79541015625,-18.31787109375
0.029,-1.26123046875,17.75732421875,-16.39599609375
0.0295,-4.82470703125,19.19873046875,-14.55419921875
0.03,-7.70751953125,19.27880859375,-11.95166015625
0.0305,-10.75048828125,19.27880859375,-9.06884765625
0.031,-14.23388671875,18.75830078125,-5.26513671875
0.0315,-16.87646484375,17.31689453125,-1.30126953125
0.032,-18.63818359375,15.23486328125,2.54248046875
0.0325,-19.51904296875,12.95263671875,5.70556640625
0.033,-19.83935546875,10.02978515625,8.90869140625
0.0335,-19.63916015625,6.02587890625,12.67236328125
0.034,-19.03857421875,2.74267578125,15.51513671875
0.0345,-17.59716796875,-0.98095703125,17.75732421875
0.035,-15.71533203125,-4.62451171875,19.55908203125
0.0355,-12.99267578125,-7.50732421875,19.79931640625
0.036,-10.22998046875,-10.59033203125,20.15966796875
0.0365,-5.62548828125,-14.39404296875,19.51904296875
0.037,-1.30126953125,-17.03662109375,18.07763671875
0.0375,2.66259765625,-18.71826171875,15.99560546875
0.038,5.98583984375,-19.87939453125,14.11376953125
0.0385,9.10888671875,-19.91943359375,11.23095703125
0.039,12.63232421875,-19.55908203125,7.54736328125
0.0395,15.67529296875,-18.91845703125,4.02392578125
0.04,18.23779296875,-17.07666015625,-0.30029296875
0.0405,19.91943359375,-14.99462890625,-4.14404296875
0.041,20.23974609375,-12.23193359375,-7.18701171875
0.0415,20.52001953125,-9.30908203125,-10.55029296875
0.042,20.11962890625,-4.82470703125,-14.47412109375
0.0425,19.11865234375,-1.22119140625,-17.15673828125
0.043,17.23681640625,2.50244140625,-18.95849609375
0.0435,15.23486328125,6.10595703125,-20.60009765625
0.044,11.91162109375,9.26904296875,-20.52001953125
0.0445,8.38818359375,12.67236328125,-20.47998046875
0.045,4.10400390625,16.07568359375,-19.79931640625
0.0455,-0.74072265625,18.59814453125,-17.75732421875
0.046,-4.50439453125,19.95947265625,-15.55517578125
0.0465,-7.70751953125,20.52001953125,-13.19287109375
0.047,-10.91064453125,20.64013671875,-10.35009765625
0.0475,-14.79443359375,19.79931640625,-5.74560546875
0.048,-17.43701171875,18.71826171875,-2.18212890625
0.0485,-19.59912109375,16.51611328125,2.10205078125
0.049,-21.00048828125,14.15380859375,5.86572265625
0.0495,-21.00048828125,10.87060546875,9.14892578125
0.05,-21.12060546875,7.58740234375,12.63232421875
0.0505,-20.47998046875,3.34326171875,16.31591796875
0.051,-18.99853515625,-0.82080078125,18.91845703125
0.0515,-16.79638671875,-4.42431640625,20.35986328125
0.052,-14.51416015625,-7.74755859375,21.48095703125
0.0525,-11.07080078125,-11.03076171875,21.40087890625
0.053,-6.50634765625,-14.79443359375,20.76025390625
0.0535,-2.50244140625,-17.55712890625,19.67919921875
0.054,2.34228515625,-19.75927734375,17.35693359375
0.0545,5.94580078125,-20.84033203125,15.07470703125
0.055,9.22900390625,-20.88037109375,12.07177734375
0.0555,12.35205078125,-20.96044921875,9.22900390625
0.056,16.31591796875,-19.87939453125,4.42431640625
0.0565,18.83837890625,-18.19775390625,0.26025390625
0.057,20.47998046875,-15.99560546875,-3.66357421875
0.0575,21.56103515625,-13.43310546875,-7.26708984375
0.058,21.28076171875,-9.86962890625,-10.55029296875
0.0585,21.08056640625,-6.02587890625,-14.23388671875
0.059,20.35986328125,-2.26220703125,-17.27685546875
0.0595,18.51806640625,1.98193359375,-19.71923828125
0.06,16.03564453125,5.62548828125,-20.92041015625
0.0605,13.23291015625,8.90869140625,-21.44091796875
0.061,10.10986328125,12.11181640625,-21.60107421875
0.0615,4.78466796875,16.15576171875,-20.47998046875
0.062,0.66064453125,18.55810546875,-18.95849609375
0.0625,-3.66357421875,20.35986328125,-16.71630859375
0.063,-7.30712890625,21.32080078125,-14.39404296875
0.0635,-10.71044921875,21.00048828125,-10.87060546875
0.064,-13.91357421875,20.80029296875,-7.66748046875
0.0645,-17.35693359375,19.75927734375,-3.34326171875
0.065,-19.83935546875,17.55712890625,1.38134765625
0.0655,-21.12060546875,15.15478515625,4.94482421875
0.066,-21.84130859375,12.35205078125,8.54833984375
0.0665,-21.72119140625,8.90869140625,11.87158203125
0.067,-21.16064453125,4.34423828125,15.99560546875
0.0675,-20.11962890625,0.66064453125,18.59814453125
0.068,-18.19775390625,-3.46337890625,20.80029296875
0.0685,-15.67529296875,-7.06689453125,21.92138671875
0.069,-12.19189453125,-10.47021484375,21.88134765625
0.0695,-8.86865234375,-13.79345703125,22.00146484375
0.07,-3.54345703125,-17.59716796875,20.64013671875
0.0705,1.34130859375,-19.87939453125,18.39794921875
0.071,5.10498046875,-21.16064453125,16.23583984375
0.0715,8.66845703125,-21.96142578125,13.63330078125
0.072,12.19189453125,-21.48095703125,9.94970703125
0.0725,15.75537109375,-20.88037109375,5.82568359375
0.073,18.75830078125,-19.79931640625,1.74169921875
0.0735,21.16064453125,-17.15673828125,-3.14306640625
0.074,22.04150390625,-14.55419921875,-6.54638671875
0.0745,22.36181640625,-11.23095703125,-10.22998046875
0.075,22.16162109375,-7.70751953125,-13.63330078125
0.0755,21.32080078125,-3.06298828125,-17.47705078125
0.076,19.59912109375,1.14111328125,-19.87939453125
0.0765,17.43701171875,5.02490234375,-21.64111328125
0.077,14.71435546875,8.62841796875,-22.60205078125
0.0775,10.67041015625,12.19189453125,-22.28173828125
0.078,6.70654296875,15.75537109375,-21.92138671875
0.0785,1.94189453125,18.95849609375,-20.56005859375
0.079,-3.34326171875,21.12060546875,-17.79736328125
0.0795,-6.74658203125,21.92138671875,-15.43505859375
0.08,-10.35009765625,22.36181640625,-12.51220703125
0.0805,-13.79345703125,21.84130859375,-8.82861328125
0.081,-17.55712890625,20.68017578125,-4.14404296875
0.0815,-20.19970703125,18.91845703125,0.22021484375
0.082,-22.16162109375,16.39599609375,4.78466796875
0.0825,-22.72216796875,13.47314453125,8.18798828125
0.083,-22.68212890625,9.62939453125,12.03173828125
0.0835,-22.32177734375,5.74560546875,15.59521484375
0.084,-21.32080078125,1.46142578125,18.95849609375
0.0845,-19.07861328125,-2.98291015625,21.16064453125
0.085,-16.63623046875,-6.58642578125,22.40185546875
0.0855,-13.79345703125,-10.06982421875,23.08251953125
0.086,-9.58935546875,-13.59326171875,22.48193359375
0.0865,-4.82470703125,-17.15673828125,21.48095703125
0.087,-0.30029296875,-19.83935546875,19.83935546875
0.0875,4.62451171875,-21.64111328125,17.07666015625
0.088,7.90771484375,-22.04150390625,14.43408203125
0.0885,11.51123046875,-22.16162109375,11.19091796875
0.089,14.87451171875,-21.64111328125,7.46728515625
0.0895,18.27783203125,-20.31982421875,2.86279296875
0.09,20.64013671875,-18.03759765625,-1.66162109375
0.0905,22.12158203125,-15.59521484375,-5.62548828125
0.091,22.48193359375,-12.51220703125,-9.02880859375
0.0915,22.20166015625,-8.66845703125,-12.67236328125
0.092,21.64111328125,-4.62451171875,-16.15576171875
0.0925,20.56005859375,-0.66064453125,-19.07861328125
0.093,18.15771484375,3.78369140625,-21.12060546875
0.0935,15.51513671875,7.06689453125,-21.84130859375
0.094,12.51220703125,10.55029296875,-22.36181640625
0.0945,8.34814453125,14.11376953125,-21.92138671875
0.095,3.54345703125,17.47705078125,-20.60009765625
0.0955,-1.02099609375,19.79931640625,-18.59814453125
0.096,-5.26513671875,21.40087890625,-16.31591796875
0.0965,-8.50830078125,21.64111328125,-13.55322265625
0.097,-11.99169921875,21.48095703125,-10.18994140625
0.0975,-15.47509765625,20.88037109375,-6.30615234375
0.098,-18.55810546875,19.51904296875,-1.94189453125
0.0985,-20.72021484375,17.03662109375,2.70263671875
0.099,-21.76123046875,14.59423828125,6.22607421875
0.0995,-22.20166015625,11.39111328125,9.82958984375
0.1,-22.00146484375,7.42724609375,13.63330078125
0.1005,-21.16064453125,3.30322265625,16.91650390625
0.101,-19.71923828125,-0.70068359375,19.51904296875
0.1015,-17.47705078125,-4.90478515625,21.52099609375
0.102,-14.67431640625,-8.06787109375,21.96142578125
0.1025,-11.39111328125,-11.59130859375,22.24169921875
0.103,-7.06689453125,-15.31494140625,21.80126953125
0.1035,-2.18212890625,-18.39794921875,20.19970703125
0.104,2.54248046875,-20.35986328125,17.75732421875
0.1045,6.26611328125,-21.72119140625,15.59521484375
0.105,9.74951171875,-21.92138671875,12.55224609375
0.1055,13.23291015625,-21.56103515625,8.94873046875
0.106,16.75634765625,-20.76025390625,4.82470703125
0.1065,19.67919921875,-19.03857421875,0.30029296875
0.107,21.68115234375,-16.47607421875,-4.26416015625
0.1075,22.24169921875,-13.75341796875,-7.58740234375
0.108,22.56201171875,-10.31005859375,-11.27099609375
0.1085,22.08154296875,-6.06591796875,-15.23486328125
0.109,21.12060546875,-2.02197265625,-18.31787109375
0.1095,19.15869140625,2.22216796875,-20.47998046875
0.11,16.83642578125,6.26611328125,-22.36181640625
0.1105,13.59326171875,9.62939453125,-22.48193359375
0.111,9.90966796875,13.15283203125,-22.44189453125
0.1115,5.30517578125,16.83642578125,-21.72119140625
0.112,0.34033203125,19.79931640625,-19.87939453125
0.1125,-4.34423828125,21.44091796875,-17.23681640625
0.113,-7.82763671875,22.28173828125,-14.79443359375
0.1135,-11.47119140625,22.40185546875,-11.59130859375
0.114,-15.23486328125,21.64111328125,-7.30712890625
0.1145,-18.35791015625,20.60009765625,-3.22314453125
0.115,-20.96044921875,18.43798828125,1.54150390625
0.1155,-22.76220703125,15.79541015625,5.94580078125
0.116,-22.80224609375,12.51220703125,9.26904296875
0.1165,-23.04248046875,8.98876953125,13.07275390625
0.117,-22.36181640625,4.34423828125,17.03662109375
0.1175,-21.08056640625,0.18017578125,20.03955078125
0.118,-18.63818359375,-4.02392578125,21.80126953125
0.1185,-16.27587890625,-7.74755859375,23.16259765625
0.119,-12.67236328125,-11.23095703125,23.12255859375
0.1195,-8.30810546875,-14.99462890625,22.60205078125
0.12,-3.82373046875,-18.19775390625,21.52099609375
0.1205,1.42138671875,-20.84033203125,19.23876953125
0.121,5.82568359375,-22.36181640625,16.59619140625
0.1215,9.10888671875,-22.48193359375,13.71337890625
0.122,12.63232421875,-22.60205078125,10.59033203125
0.1225,16.67626953125,-21.52099609375,5.70556640625
0.123,19.51904296875,-20.07958984375,1.58154296875
0.1235,21.64111328125,-17.67724609375,-2.94287109375
0.124,23.08251953125,-15.11474609375,-6.98681640625
0.1245,22.92236328125,-11.51123046875,-10.43017578125
0.125,22.80224609375,-7.62744140625,-14.31396484375
0.1255,22.00146484375,-3.46337890625,-17.67724609375
0.126,20.39990234375,1.02099609375,-20.52001953125
0.1265,17.75732421875,5.10498046875,-22.04150390625
0.127,15.03466796875,8.54833984375,-22.76220703125
0.1275,11.67138671875,12.03173828125,-23.16259765625
0.128,6.42626953125,16.19580078125,-22.12158203125
0.1285,2.30224609375,18.79833984375,-20.80029296875
0.129,-2.62255859375,21.00048828125,-18.39794921875
0.1295,-6.74658203125,22.44189453125,-15.99560546875
0.13,-9.98974609375,22.12158203125,-12.63232421875
0.1305,-13.43310546875,22.16162109375,-9.54931640625
0.131,-17.39697265625,21.16064453125,-4.70458984375
0.1315,-20.07958984375,19.19873046875,-0.14013671875
0.132,-21.80126953125,16.71630859375,4.10400390625
0.1325,-22.88232421875,14.03369140625,7.82763671875
0.133,-22.80224609375,10.39013671875,11.43115234375
0.1335,-22.44189453125,5.90576171875,15.63525390625
0.134,-21.52099609375,2.18212890625,18.47802734375
0.1345,-19.71923828125,-2.26220703125,21.04052734375
0.135,-17.11669921875,-6.34619140625,22.60205078125
0.1355,-14.03369140625,-9.62939453125,22.68212890625
0.136,-10.83056640625,-12.95263671875,23.00244140625
0.1365,-5.18505859375,-17.15673828125,21.80126953125
0.137,-0.62060546875,-19.71923828125,19.99951171875
0.1375,3.78369140625,-21.40087890625,17.59716796875
0.138,7.66748046875,-22.52197265625,15.15478515625
0.1385,11.19091796875,-22.16162109375,11.55126953125
0.139,14.75439453125,-21.76123046875,7.74755859375
0.1395,18.11767578125,-20.80029296875,3.58349609375
0.14,20.80029296875,-18.51806640625,-1.38134765625
0.1405,22.24169921875,-15.95556640625,-5.30517578125
0.141,22.68212890625,-12.87255859375,-8.82861328125
0.1415,22.76220703125,-9.54931640625,-12.27197265625
0.142,22.00146484375,-4.62451171875,-16.59619140625
0.1425,20.76025390625,-0.82080078125,-19.11865234375
0.143,18.63818359375,3.34326171875,-21.12060546875
0.1435,16.07568359375,7.30712890625,-22.60205078125
0.144,12.39208984375,10.75048828125,-22.28173828125
0.1445,8.90869140625,14.07373046875,-22.36181640625
0.145,3.86376953125,17.79736328125,-21.28076171875
0.1455,-1.26123046875,20.23974609375,-18.91845703125
0.146,-5.10498046875,21.52099609375,-16.51611328125
0.1465,-8.74853515625,22.28173828125,-13.95361328125
0.147,-12.19189453125,22.08154296875,-10.55029296875
0.1475,-16.03564453125,21.12060546875,-5.94580078125
0.148,-18.83837890625,19.91943359375,-2.06201171875
0.1485,-21.12060546875,17.51708984375,2.58251953125
0.149,-22.28173828125,14.87451171875,6.42626953125
0.1495,-22.32177734375,11.35107421875,9.94970703125
0.15,-22.44189453125,7.98779296875,13.43310546875
0.1505,-21.60107421875,3.30322265625,17.35693359375
0.151,-19.87939453125,-0.98095703125,19.87939453125
0.1515,-17.63720703125,-4.66455078125,21.40087890625
0.152,-15.19482421875,-8.26806640625,22.60205078125
0.1525,-11.35107421875,-11.71142578125,22.28173828125
0.153,-6.98681640625,-15.39501953125,21.76123046875
0.1535,-2.66259765625,-18.39794921875,20.56005859375
0.154,2.50244140625,-20.56005859375,17.99755859375
0.1545,6.10595703125,-21.56103515625,15.63525390625
0.155,9.54931640625,-21.80126953125,12.67236328125
0.1555,12.79248046875,-21.76123046875,9.62939453125
0.156,16.79638671875,-20.60009765625,4.62451171875
0.1565,19.31884765625,-18.91845703125,0.50048828125
0.157,21.12060546875,-16.63623046875,-3.54345703125
0.1575,22.08154296875,-13.95361328125,-7.18701171875
0.158,21.84130859375,-10.31005859375,-10.55029296875
0.1585,21.64111328125,-6.54638671875,-14.23388671875
0.159,20.88037109375,-2.62255859375,-17.43701171875
0.1595,18.95849609375,1.74169921875,-19.87939453125
0.16,16.51611328125,5.34521484375,-21.08056640625
0.1605,13.83349609375,8.66845703125,-21.84130859375
0.161,10.43017578125,11.99169921875,-21.84130859375
0.1615,5.26513671875,15.95556640625,-20.80029296875
0.162,1.30126953125,18.43798828125,-19.39892578125
0.1625,-3.18310546875,20.31982421875,-17.15673828125
0.163,-6.74658203125,21.28076171875,-14.75439453125
0.1635,-10.18994140625,21.12060546875,-11.43115234375
0.164,-13.43310546875,21.00048828125,-8.22802734375
0.1645,-17.03662109375,19.91943359375,-3.82373046875
0.165,-19.39892578125,17.79736328125,0.78076171875
0.1655,-20.76025390625,15.55517578125,4.26416015625
0.166,-21.56103515625,12.79248046875,7.82763671875
0.1665,-21.40087890625,9.30908203125,11.11083984375
0.167,-20.92041015625,4.98486328125,15.07470703125
0.1675,-19.99951171875,1.34130859375,17.79736328125
0.168,-18.19775390625,-2.74267578125,20.03955078125
0.1685,-15.75537109375,-6.26611328125,21.12060546875
0.169,-12.63232421875,-9.54931640625,21.40087890625
0.1695,-9.34912109375,-12.87255859375,21.56103515625
0.17,-4.18408203125,-16.59619140625,20.31982421875
0.1705,0.38037109375,-18.87841796875,18.27783203125
0.171,4.06396484375,-20.31982421875,16.31591796875
0.1715,7.58740234375,-21.20068359375,13.79345703125
0.172,10.91064453125,-20.84033203125,10.43017578125
0.1725,14.59423828125,-20.35986328125,6.50634765625
0.173,17.55712890625,-19.27880859375,2.58251953125
0.1735,19.87939453125,-16.95654296875,-2.02197265625
0.174,20.80029296875,-14.59423828125,-5.30517578125
0.1745,21.28076171875,-11.59130859375,-8.78857421875
0.175,21.16064453125,-8.18798828125,-12.15185546875
0.1755,20.47998046875,-3.86376953125,-15.83544921875
0.176,19.03857421875,0.02001953125,-18.23779296875
0.1765,17.15673828125,3.70361328125,-20.11962890625
0.177,14.63427734375,7.18701171875,-21.12060546875
0.1775,11.07080078125,10.51025390625,-21.04052734375
0.178,7.34716796875,14.11376953125,-20.88037109375
0.1785,2.82275390625,17.31689453125,-19.75927734375
0.179,-2.06201171875,19.39892578125,-17.31689453125
0.1795,-5.30517578125,20.43994140625,-15.27490234375
0.18,-8.78857421875,21.00048828125,-12.67236328125
0.1805,-12.07177734375,20.64013671875,-9.26904296875
0.181,-15.71533203125,19.83935546875,-4.90478515625
0.1815,-18.27783203125,18.31787109375,-0.98095703125
0.182,-20.27978515625,15.99560546875,3.34326171875
0.1825,-20.96044921875,13.43310546875,6.54638671875
0.183,-21.12060546875,10.06982421875,10.10986328125
0.1835,-20.92041015625,6.42626953125,13.59326171875
0.184,-20.19970703125,2.42236328125,16.91650390625
0.1845,-18.23779296875,-1.74169921875,19.07861328125
0.185,-16.19580078125,-5.14501953125,20.47998046875
0.1855,-13.63330078125,-8.46826171875,21.32080078125
0.186,-9.94970703125,-11.71142578125,21.00048828125
0.1865,-5.62548828125,-15.23486328125,20.27978515625
0.187,-1.38134765625,-17.95751953125,18.95849609375
0.1875,3.22314453125,-19.79931640625,16.51611328125
0.188,6.30615234375,-20.35986328125,14.23388671875
0.1885,9.66943359375,-20.64013671875,11.35107421875
0.189,13.07275390625,-20.23974609375,7.86767578125
0.1895,16.35595703125,-19.19873046875,3.66357421875
0.19,18.63818359375,-17.27685546875,-0.54052734375
0.1905,20.19970703125,-15.11474609375,-4.18408203125
0.191,20.68017578125,-12.39208984375,-7.42724609375
0.1915,20.52001953125,-8.98876953125,-10.71044921875
