wavelength,x,y,z
0.0,22.2216796875,-16.7763671875,-4.5244140625
0.0005,23.0625,-14.1337890625,-8.087890625
0.001,22.7822265625,-10.2900390625,-11.69140625
0.0015,22.5419921875,-6.486328125,-15.2548828125
0.002,21.5009765625,-2.2021484375,-18.578125
0.0025,19.2587890625,2.642578125,-21.140625
0.003,16.49609375,6.40625,-22.1416015625
0.0035,13.61328125,9.8896484375,-22.7822265625
0.004,9.849609375,13.373046875,-22.58203125
0.0045,4.2041015625,17.45703125,-21.30078125
0.005,-0.48046875,20.1396484375,-19.5390625
0.0055,-5.125,22.0615234375,-17.0166015625
0.006,-8.6884765625,22.7421875,-14.4541015625
0.0065,-12.33203125,22.4619140625,-10.8505859375
0.007,-15.53515625,22.26171875,-7.6474609375
0.0075,-19.1787109375,20.8203125,-2.72265625
0.008,-21.7412109375,18.2578125,2.40234375
0.0085,-22.90234375,15.775390625,6.005859375
0.009,-23.54296875,12.8125,9.609375
0.0095,-23.142578125,8.96875,13.1728515625
0.01,-22.421875,4.32421875,17.0966796875
0.0105,-21.140625,0.2802734375,19.859375
0.011,-18.7783203125,-4.244140625,22.1015625
0.0115,-15.85546875,-7.84765625,22.822265625
0.012,-12.4521484375,-11.291015625,22.9423828125
0.0125,-8.6884765625,-14.814453125,22.7421875
0.013,-2.8828125,-18.658203125,20.98046875
0.0135,2.2421875,-21.0205078125,18.5380859375
0.014,6.24609375,-22.421875,16.255859375
0.0145,9.7294921875,-22.9423828125,13.5732421875
0.015,13.373046875,-22.501953125,9.7294921875
0.0155,16.7763671875,-21.8212890625,5.8056640625
0.016,19.9794921875,-20.3798828125,1.3212890625
0.0165,22.341796875,-17.7373046875,-3.7236328125
0.017,23.0224609375,-15.0947265625,-7.0869140625
0.0175,23.4228515625,-11.8515625,-10.650390625
0.018,23.0625,-8.16796875,-14.1337890625
0.0185,21.9814453125,-3.3232421875,-17.8974609375
0.019,20.1796875,1.0009765625,-20.3798828125
0.0195,17.857421875,5.125,-22.2216796875
0.02,14.8544921875,8.6884765625,-22.8623046875
0.0205,10.9306640625,12.2919921875,-22.58203125
0.021,6.7666015625,15.935546875,-22.181640625
0.0215,1.4814453125,19.3388671875,-20.5
0.022,-3.84375,21.5009765625,-17.6572265625
0.0225,-7.2470703125,22.3818359375,-15.4150390625
0.023,-10.73046875,22.822265625,-12.65234375
0.0235,-14.2138671875,22.341796875,-8.9287109375
0.024,-17.77734375,21.1806640625,-4.404296875
0.0245,-20.580078125,19.3388671875,0.1201171875
0.025,-22.6220703125,16.736328125,4.8046875
0.0255,-23.0224609375,13.8935546875,8.087890625
0.026,-23.22265625,10.2900390625,11.8515625
0.0265,-22.822265625,6.486328125,15.375
0.027,-21.7412109375,1.921875,18.8984375
0.0275,-19.4189453125,-2.642578125,21.1005859375
0.028,-17.0166015625,-6.40625,22.4619140625
0.0285,-14.1337890625,-9.8896484375,23.1025390625
0.029,-9.9296875,-13.453125,22.58203125
0.0295,-5.205078125,-17.13671875,21.701171875
0.03,0.0,-20.2197265625,19.859375
0.0305,5.0048828125,-22.1015625,17.0966796875
0.031,8.2080078125,-22.58203125,14.57421875
0.0315,11.8115234375,-22.90234375,11.53125
0.032,15.4150390625,-22.341796875,7.607421875
0.0325,18.8583984375,-21.140625,2.962890625
0.033,21.4208984375,-18.8583984375,-1.76171875
0.0335,23.1025390625,-16.2958984375,-5.8857421875
0.034,23.3427734375,-13.212890625,-9.2490234375
0.0345,23.302734375,-9.369140625,-12.97265625
0.035,22.5419921875,-5.1650390625,-16.6162109375
0.0355,21.30078125,-0.80078125,-19.7392578125
0.036,18.658203125,3.8837890625,-21.7412109375
0.0365,15.9755859375,7.3671875,-22.58203125
0.037,12.8525390625,10.9306640625,-23.1025390625
0.0375,8.2880859375,14.734375,-22.4619140625
0.038,3.3232421875,18.1376953125,-21.1005859375
0.0385,-1.76171875,20.7802734375,-18.978515625
0.039,-6.2861328125,22.4619140625,-16.4560546875
0.0395,-9.369140625,22.58203125,-13.6533203125
0.04,-12.97265625,22.7021484375,-10.330078125
0.0405,-16.65625,21.861328125,-6.166015625
0.041,-19.7392578125,20.2197265625,-1.6015625
0.0415,-21.861328125,17.7373046875,3.123046875
0.042,-23.0625,15.1748046875,6.806640625
0.0425,-23.22265625,11.9716796875,10.2900390625
0.043,-22.982421875,7.84765625,14.09375
0.0435,-21.9814453125,3.603515625,17.4169921875
0.044,-20.4599609375,-0.80078125,20.259765625
0.0445,-17.857421875,-5.1650390625,22.0615234375
0.045,-14.974609375,-8.328125,22.3818359375
0.0455,-11.8115234375,-11.7314453125,22.7421875
0.046,-6.966796875,-15.6953125,21.94140625
0.0465,-1.9619140625,-18.73828125,20.2197265625
0.047,2.8427734375,-20.7802734375,17.77734375
0.0475,6.7666015625,-22.2216796875,15.4951171875
0.048,9.9296875,-22.3017578125,12.65234375
0.0485,13.4130859375,-22.1015625,9.208984375
0.049,17.0166015625,-21.1806640625,5.0849609375
0.0495,19.8994140625,-19.37890625,0.3603515625
0.05,21.78125,-16.8564453125,-4.0439453125
0.0505,22.421875,-14.2138671875,-7.3671875
0.051,22.7421875,-11.05078125,-10.890625
0.0515,22.26171875,-6.88671875,-14.6142578125
0.052,21.1806640625,-2.7626953125,-17.6572265625
0.0525,19.21875,1.5615234375,-20.01953125
0.053,16.8564453125,5.6455078125,-21.78125
0.0535,13.693359375,8.8486328125,-21.8212890625
0.054,10.4501953125,12.2119140625,-22.021484375
0.0545,5.4853515625,16.1357421875,-21.1806640625
0.055,0.5205078125,19.138671875,-19.3388671875
0.0555,-4.00390625,20.7802734375,-16.8564453125
0.056,-7.447265625,21.78125,-14.6943359375
0.0565,-10.810546875,21.861328125,-11.69140625
0.057,-14.25390625,21.5009765625,-7.84765625
0.0575,-17.45703125,20.419921875,-3.923828125
0.058,-20.1796875,18.337890625,0.8408203125
0.0585,-21.8212890625,15.8154296875,4.96484375
0.059,-22.1015625,12.9326171875,8.1279296875
0.0595,-22.3818359375,9.76953125,11.5712890625
0.06,-21.7412109375,5.2451171875,15.5751953125
0.0605,-20.5,1.2412109375,18.41796875
0.061,-18.337890625,-2.8828125,20.259765625
0.0615,-16.095703125,-6.56640625,21.78125
0.062,-12.8125,-9.76953125,21.78125
0.0625,-9.0087890625,-13.29296875,21.541015625
0.063,-4.3642578125,-16.736328125,20.5400390625
0.0635,0.880859375,-19.5390625,18.3779296875
0.064,5.0048828125,-21.0205078125,16.015625
0.0645,8.0478515625,-21.541015625,13.693359375
0.065,11.4912109375,-21.861328125,10.7705078125
0.0655,15.2548828125,-20.98046875,6.40625
0.066,18.0576171875,-19.7392578125,2.482421875
0.0665,20.3798828125,-17.5771484375,-1.9619140625
0.067,21.8212890625,-15.1748046875,-5.765625
0.0675,21.78125,-12.1318359375,-8.9287109375
0.068,21.94140625,-8.96875,-12.412109375
0.0685,21.1806640625,-4.4443359375,-16.015625
0.069,19.779296875,-0.2001953125,-18.818359375
0.0695,17.296875,3.763671875,-20.33984375
0.07,14.9345703125,7.126953125,-21.5009765625
0.0705,11.771484375,10.4501953125,-21.5810546875
0.071,7.046875,14.3740234375,-20.8603515625
0.0715,2.8828125,17.216796875,-19.7392578125
0.072,-2.162109375,19.5791015625,-17.376953125
0.0725,-5.9658203125,20.98046875,-15.21484375
0.073,-8.9287109375,20.98046875,-12.5322265625
0.0735,-12.0517578125,21.2607421875,-9.8896484375
0.074,-15.8955078125,20.259765625,-5.2451171875
0.0745,-18.578125,18.5380859375,-1.0009765625
0.075,-20.2998046875,16.3759765625,2.8828125
0.0755,-21.4609375,14.013671875,6.40625
0.076,-21.4208984375,10.7705078125,9.6494140625
0.0765,-21.2607421875,7.046875,13.29296875
0.077,-20.4599609375,3.203125,16.3359375
0.0775,-18.7783203125,-1.12109375,18.9384765625
0.078,-16.3759765625,-4.8447265625,20.33984375
0.0785,-13.8134765625,-7.767578125,20.740234375
0.079,-10.970703125,-10.9306640625,21.140625
0.0795,-5.7255859375,-15.0146484375,20.099609375
0.08,-1.44140625,-17.6572265625,18.5380859375
0.0805,2.8427734375,-19.4189453125,16.3759765625
0.081,6.3662109375,-20.7001953125,14.333984375
0.0815,9.4091796875,-20.5,11.4111328125
0.082,12.4921875,-20.4599609375,8.48828125
0.0825,15.9755859375,-19.6591796875,4.404296875
0.083,18.498046875,-17.697265625,0.0
0.0835,20.01953125,-15.53515625,-3.603515625
0.084,20.66015625,-13.0927734375,-6.7666015625
0.0845,20.8603515625,-10.25,-9.76953125
0.085,20.3798828125,-5.8857421875,-13.7734375
0.0855,19.458984375,-2.4423828125,-16.3759765625
0.086,17.6572265625,1.5615234375,-18.498046875
0.0865,15.4951171875,5.205078125,-19.9794921875
0.087,12.412109375,8.16796875,-19.939453125
0.0875,9.529296875,11.291015625,-20.259765625
0.088,4.6044921875,15.0546875,-19.298828125
0.0885,-0.16015625,17.6171875,-17.376953125
0.089,-3.603515625,19.0185546875,-15.455078125
0.0895,-6.806640625,20.01953125,-13.453125
0.09,-9.8896484375,20.01953125,-10.6103515625
0.0905,-13.29296875,19.4990234375,-6.9267578125
0.091,-16.17578125,18.658203125,-3.36328125
0.0915,-18.41796875,16.65625,0.9208984375
0.092,-19.7392578125,14.4541015625,4.2841796875
0.0925,-19.9794921875,11.7314453125,7.287109375
0.093,-20.33984375,9.0888671875,10.2900390625
0.0935,-19.7392578125,4.64453125,14.2138671875
0.094,-18.5380859375,0.9609375,16.6962890625
0.0945,-16.65625,-2.5625,18.3779296875
0.095,-14.6943359375,-5.92578125,19.779296875
0.0955,-11.53125,-8.9287109375,19.69921875
0.096,-7.9677734375,-12.33203125,19.5390625
0.0965,-3.68359375,-15.5751953125,18.6181640625
0.097,1.1611328125,-17.9375,16.4560546875
0.0975,4.4443359375,-19.0986328125,14.654296875
0.098,7.447265625,-19.69921875,12.33203125
0.0985,10.3701171875,-19.939453125,9.9697265625
0.099,14.1337890625,-19.1787109375,5.60546875
0.0995,16.7763671875,-17.9375,1.921875
0.1,18.6982421875,-16.015625,-1.9619140625
0.1005,19.859375,-13.93359375,-5.1650390625
0.101,19.8994140625,-10.890625,-8.248046875
0.1015,20.1396484375,-7.927734375,-11.4912109375
0.102,19.4990234375,-3.9638671875,-14.89453125
0.1025,17.9375,0.240234375,-17.45703125
0.103,15.8154296875,3.5634765625,-18.73828125
0.1035,13.61328125,6.7666015625,-19.779296875
0.104,10.6103515625,9.8095703125,-19.8994140625
0.1045,5.8056640625,13.7333984375,-19.1787109375
0.105,1.921875,16.416015625,-18.09765625
0.1055,-2.5625,18.498046875,-16.015625
0.106,-5.765625,19.4990234375,-13.9736328125
0.1065,-8.80859375,19.619140625,-11.291015625
0.107,-11.69140625,19.859375,-8.7685546875
0.1075,-15.3349609375,18.8984375,-4.3642578125
0.108,-17.8173828125,17.0166015625,-0.2001953125
0.1085,-19.21875,15.0947265625,3.1630859375
0.109,-20.1396484375,12.8125,6.3662109375
0.1095,-20.099609375,9.7294921875,9.4091796875
0.11,-19.8193359375,5.8857421875,13.0927734375
0.1105,-19.0986328125,2.40234375,15.935546875
0.111,-17.4169921875,-1.681640625,18.177734375
0.1115,-15.1748046875,-4.96484375,19.21875
0.112,-12.572265625,-7.9677734375,19.69921875
0.1125,-9.6494140625,-11.05078125,19.8994140625
0.113,-4.5244140625,-14.814453125,18.6982421875
0.1135,-0.2001953125,-17.13671875,17.0166015625
0.114,3.443359375,-18.73828125,15.21484375
0.1145,6.56640625,-19.619140625,13.1328125
0.115,9.609375,-19.5390625,10.2099609375
0.1155,12.732421875,-19.3388671875,7.0869140625
0.116,15.8154296875,-18.3779296875,3.2431640625
0.1165,18.09765625,-16.3359375,-1.041015625
0.117,19.138671875,-14.333984375,-4.0439453125
0.1175,19.69921875,-11.8515625,-7.126953125
0.118,19.779296875,-9.12890625,-9.9296875
0.1185,19.1787109375,-4.8447265625,-13.6533203125
0.119,18.09765625,-1.361328125,-16.1357421875
0.1195,16.3759765625,2.2822265625,-18.017578125
0.12,14.1337890625,5.4853515625,-19.0986328125
0.1205,11.130859375,8.48828125,-19.0986328125
0.121,7.9677734375,11.7314453125,-19.2587890625
0.1215,3.36328125,15.1748046875,-17.9775390625
0.122,-1.28125,17.296875,-15.9755859375
0.1225,-4.244140625,18.4580078125,-14.333984375
0.123,-7.2470703125,19.21875,-12.251953125
0.1235,-10.2099609375,19.1787109375,-9.5693359375
0.124,-13.61328125,18.5380859375,-5.7255859375
0.1245,-16.2158203125,17.4169921875,-2.08203125
0.125,-18.2177734375,15.4951171875,1.841796875
0.1255,-19.0185546875,13.3330078125,4.7646484375
0.126,-19.3388671875,10.5302734375,7.8876953125
0.1265,-19.4990234375,7.7275390625,10.8505859375
0.127,-18.8984375,3.68359375,14.3740234375
0.1275,-17.3369140625,-0.16015625,16.6962890625
0.128,-15.615234375,-3.36328125,18.09765625
0.1285,-13.533203125,-6.4462890625,19.1787109375
0.129,-10.3701171875,-9.4091796875,19.0185546875
0.1295,-6.40625,-12.892578125,18.6181640625
0.13,-2.2021484375,-15.85546875,17.537109375
0.1305,2.2421875,-17.8173828125,15.375
0.131,5.044921875,-18.6181640625,13.5732421875
0.1315,8.1279296875,-19.138671875,11.2509765625
0.132,11.05078125,-19.1787109375,8.6083984375
0.1325,14.4140625,-18.337890625,4.484375
0.133,16.9365234375,-16.81640625,0.6005859375
0.1335,18.578125,-14.974609375,-2.8828125
0.134,19.2587890625,-12.732421875,-5.765625
0.1345,19.37890625,-9.849609375,-8.888671875
0.135,19.2587890625,-6.4462890625,-12.171875
0.1355,18.818359375,-2.72265625,-15.2548828125
0.136,16.81640625,1.2412109375,-17.45703125
0.1365,14.814453125,4.2841796875,-18.498046875
0.137,12.4921875,7.4072265625,-19.37890625
0.1375,9.1689453125,10.6103515625,-19.2587890625
0.138,4.6044921875,14.1337890625,-18.337890625
0.1385,0.400390625,16.736328125,-16.9365234375
0.139,-3.5634765625,18.498046875,-15.0146484375
0.1395,-6.40625,19.05859375,-12.9326171875
0.14,-9.5693359375,19.2587890625,-10.25
0.1405,-12.65234375,19.0986328125,-7.1669921875
0.141,-15.6953125,18.09765625,-3.123046875
0.1415,-17.9775390625,16.0556640625,1.0009765625
0.142,-19.1787109375,14.09375,4.1240234375
0.1425,-19.7392578125,11.5712890625,7.2470703125
0.143,-19.7392578125,8.4482421875,10.3701171875
0.1435,-19.21875,4.564453125,13.7333984375
0.144,-18.2578125,0.9208984375,16.4560546875
0.1445,-16.3359375,-2.962890625,18.3779296875
0.145,-14.0537109375,-5.8056640625,19.05859375
0.1455,-11.4111328125,-8.9287109375,19.5390625
0.146,-7.7275390625,-12.2919921875,19.3388671875
0.1465,-3.0830078125,-15.455078125,18.0576171875
0.147,1.28125,-17.6572265625,16.095703125
0.1475,4.6845703125,-19.0986328125,14.3740234375
0.148,7.5673828125,-19.5390625,12.091796875
0.1485,10.6904296875,-19.5390625,9.2490234375
0.149,13.9736328125,-19.05859375,5.6455078125
0.1495,16.81640625,-17.77734375,1.681640625
0.15,18.818359375,-15.6953125,-2.40234375
0.1505,19.5791015625,-13.4931640625,-5.28515625
0.151,19.9794921875,-10.890625,-8.3681640625
0.1515,19.859375,-7.52734375,-11.69140625
0.152,19.138671875,-3.68359375,-14.8544921875
0.1525,17.6171875,0.2001953125,-17.216796875
0.153,15.7353515625,3.84375,-18.9384765625
0.1535,13.1328125,6.8466796875,-19.37890625
0.154,10.2099609375,9.9296875,-19.5390625
0.1545,6.0859375,13.4931640625,-19.21875
0.155,1.5615234375,16.49609375,-17.77734375
0.1555,-2.7626953125,18.2978515625,-15.5751953125
0.156,-5.765625,19.3388671875,-13.8134765625
0.1565,-8.80859375,19.69921875,-11.37109375
0.157,-11.931640625,19.458984375,-8.2080078125
0.1575,-15.0947265625,18.73828125,-4.484375
0.158,-17.697265625,17.0966796875,-0.3203125
0.1585,-19.4189453125,14.974609375,3.5234375
0.159,-19.8193359375,12.5322265625,6.3662109375
0.1595,-20.1396484375,9.689453125,9.5693359375
0.16,-19.8193359375,5.8056640625,13.0927734375
0.1605,-18.978515625,2.0419921875,15.9755859375
0.161,-17.056640625,-1.8017578125,17.9375
0.1615,-15.134765625,-5.044921875,19.3388671875
0.162,-12.4521484375,-8.0078125,19.69921875
0.1625,-9.0888671875,-11.2109375,19.5791015625
0.163,-4.9248046875,-14.654296875,18.818359375
0.1635,-0.16015625,-17.3369140625,17.0966796875
0.164,3.84375,-18.9384765625,15.0146484375
0.1645,6.646484375,-19.4990234375,12.97265625
0.165,9.76953125,-19.859375,10.4501953125
0.1655,13.1328125,-19.4189453125,6.8466796875
0.166,16.0556640625,-18.4580078125,3.123046875
0.1665,18.3779296875,-16.65625,-1.041015625
0.167,19.8994140625,-14.57421875,-4.6044921875
0.1675,20.1796875,-11.8916015625,-7.5673828125
0.168,20.419921875,-8.9287109375,-10.810546875
0.1685,19.859375,-4.9248046875,-14.2939453125
0.169,18.7783203125,-1.041015625,-17.1767578125
0.1695,16.576171875,2.962890625,-18.8583984375
0.17,14.3740234375,6.0859375,-19.859375
0.1705,11.53125,9.3291015625,-20.2998046875
0.171,7.3671875,13.0126953125,-19.779296875
0.1715,3.2431640625,15.9755859375,-18.8583984375
0.172,-1.6416015625,18.41796875,-16.736328125
0.1725,-5.365234375,19.8994140625,-14.734375
0.173,-8.248046875,20.099609375,-12.251953125
0.1735,-11.291015625,20.33984375,-9.7294921875
0.174,-15.0546875,19.5791015625,-5.4052734375
0.1745,-17.8173828125,18.09765625,-1.3212890625
0.175,-19.69921875,16.015625,2.6826171875
0.1755,-20.8203125,13.7333984375,6.0859375
0.176,-20.900390625,10.6103515625,9.2490234375
0.1765,-20.8203125,7.0068359375,12.8525390625
0.177,-20.01953125,3.1630859375,15.935546875
0.1775,-18.5380859375,-1.041015625,18.658203125
0.178,-16.17578125,-4.8447265625,20.1396484375
0.1785,-13.61328125,-7.7275390625,20.5
0.179,-10.7705078125,-10.890625,20.9404296875
0.1795,-5.6455078125,-14.9345703125,19.9794921875
0.18,-1.3212890625,-17.5771484375,18.4580078125
0.1805,3.04296875,-19.458984375,16.2958984375
0.181,6.56640625,-20.7001953125,14.2138671875
0.1815,9.609375,-20.5400390625,11.3310546875
0.182,12.7724609375,-20.5400390625,8.328125
0.1825,16.255859375,-19.7392578125,4.1640625
0.183,18.8984375,-17.77734375,-0.3603515625
0.1835,20.419921875,-15.615234375,-4.0439453125
0.184,21.060546875,-13.1328125,-7.1669921875
0.1845,21.220703125,-10.08984375,-10.2900390625
0.185,20.740234375,-5.765625,-14.25390625
0.1855,19.69921875,-2.162109375,-16.8564453125
0.186,17.857421875,1.9619140625,-19.0986328125
0.1865,15.4951171875,5.685546875,-20.5
0.187,12.412109375,8.6884765625,-20.419921875
0.1875,9.44921875,11.8115234375,-20.66015625
0.188,4.32421875,15.6953125,-19.619140625
0.1885,-0.48046875,18.2978515625,-17.697265625
0.189,-4.1640625,19.7392578125,-15.6552734375
0.1895,-7.447265625,20.6201171875,-13.5732421875
0.19,-10.5703125,20.5,-10.490234375
0.1905,-13.93359375,20.01953125,-6.8466796875
0.191,-16.896484375,19.05859375,-3.123046875
0.1915,-19.298828125,16.9365234375,1.4013671875
0.192,-20.5,14.654296875,4.9248046875
0.1925,-20.900390625,11.8115234375,8.0078125
0.193,-21.0205078125,8.96875,11.05078125
0.1935,-20.33984375,4.3642578125,15.0546875
0.194,-19.0185546875,0.6005859375,17.5771484375
0.1945,-17.0166015625,-3.1630859375,19.2587890625
0.195,-14.9345703125,-6.56640625,20.6201171875
0.1955,-11.5712890625,-9.6494140625,20.419921875
0.196,-8.0078125,-13.0126953125,20.2998046875
0.1965,-3.443359375,-16.3759765625,19.2587890625
0.197,1.6015625,-18.7783203125,16.9365234375
0.1975,5.044921875,-20.01953125,14.974609375
0.198,8.16796875,-20.580078125,12.65234375
0.1985,11.2509765625,-20.740234375,9.9296875
0.199,15.0947265625,-19.8994140625,5.4052734375
0.1995,17.857421875,-18.578125,1.5615234375
0.2,19.859375,-16.6162109375,-2.5224609375
0.2005,20.98046875,-14.2939453125,-5.845703125
0.201,20.98046875,-11.1708984375,-9.12890625
0.2015,21.1005859375,-7.9677734375,-12.3720703125
0.202,20.33984375,-3.6435546875,-15.9755859375
0.2025,18.578125,0.640625,-18.578125
0.203,16.3359375,4.244140625,-19.8994140625
0.2035,14.0537109375,7.607421875,-20.900390625
0.204,10.6103515625,10.8505859375,-20.8203125
0.2045,5.8056640625,14.734375,-20.1396484375
0.205,1.6416015625,17.6171875,-18.978515625
0.2055,-3.203125,19.8193359375,-16.576171875
0.206,-6.6064453125,20.7802734375,-14.4140625
0.2065,-9.8095703125,20.8603515625,-11.5712890625
0.207,-12.892578125,20.9404296875,-8.7685546875
0.2075,-16.65625,19.8193359375,-4.083984375
0.208,-19.2587890625,17.857421875,0.48046875
0.2085,-20.8203125,15.6953125,4.0439453125
0.209,-21.62109375,13.1328125,7.4072265625
0.2095,-21.4609375,9.6494140625,10.810546875
0.21,-21.140625,5.765625,14.3740234375
0.2105,-20.259765625,1.921875,17.4169921875
0.211,-18.2578125,-2.5224609375,19.859375
0.2115,-15.6953125,-5.92578125,20.7802734375
0.212,-12.97265625,-9.12890625,21.380859375
0.2125,-9.6494140625,-12.4521484375,21.30078125
0.213,-4.2041015625,-16.416015625,20.01953125
0.2135,0.400390625,-18.9384765625,18.2177734375
0.214,4.5244140625,-20.6201171875,16.015625
0.2145,7.8876953125,-21.4208984375,13.7333984375
0.215,11.37109375,-21.220703125,10.2900390625
0.2155,14.494140625,-21.0205078125,7.0869140625
0.216,17.8974609375,-19.859375,2.6826171875
0.2165,20.33984375,-17.45703125,-2.162109375
0.217,21.4609375,-15.21484375,-5.4853515625
0.2175,22.0615234375,-12.3720703125,-8.8486328125
0.218,21.8212890625,-8.9287109375,-12.0517578125
0.2185,21.1005859375,-4.4443359375,-15.8955078125
0.219,19.859375,-0.6005859375,-18.5380859375
