wavelength,x,y,z
0.0,20.189697265625,-8.678466796875,-10.720458984375
0.0005,19.549072265625,-4.834716796875,-13.963623046875
0.001,18.748291015625,-0.990966796875,-17.006591796875
0.0015,16.946533203125,2.892822265625,-19.088623046875
0.002,14.984619140625,6.015869140625,-20.209716796875
0.0025,11.821533203125,9.098876953125,-20.209716796875
0.003,7.136962890625,12.782470703125,-19.448974609375
0.0035,3.453369140625,15.665283203125,-18.848388671875
0.004,-1.271240234375,18.387939453125,-17.206787109375
0.0045,-4.994873046875,20.189697265625,-15.485107421875
0.005,-7.757568359375,20.349853515625,-12.962646484375
0.0055,-10.960693359375,20.149658203125,-9.759521484375
0.006,-14.604248046875,19.388916015625,-5.515380859375
0.0065,-17.366943359375,18.187744140625,-1.591552734375
0.007,-19.489013671875,16.466064453125,2.212158203125
0.0075,-20.690185546875,14.424072265625,5.415283203125
0.008,-20.409912109375,11.140869140625,8.378173828125
0.0085,-19.889404296875,6.896728515625,12.021728515625
0.009,-19.408935546875,3.453369140625,14.904541015625
0.0095,-18.247802734375,-0.630615234375,17.827392578125
0.01,-16.365966796875,-4.354248046875,19.789306640625
0.0105,-13.963623046875,-7.116943359375,20.189697265625
0.011,-10.760498046875,-10.239990234375,20.229736328125
0.0115,-5.795654296875,-14.043701171875,19.348876953125
0.012,-1.751708984375,-16.806396484375,18.267822265625
0.0125,2.452392578125,-19.048583984375,16.626220703125
0.013,5.895751953125,-20.610107421875,14.944580078125
0.0135,8.858642578125,-20.289794921875,11.821533203125
0.014,12.181884765625,-19.889404296875,8.218017578125
0.0145,15.505126953125,-19.328857421875,4.494384765625
0.015,18.347900390625,-17.807373046875,0.170166015625
0.0155,20.149658203125,-16.005615234375,-3.473388671875
0.016,20.750244140625,-13.563232421875,-6.396240234375
0.0165,20.469970703125,-10.239990234375,-9.479248046875
0.017,19.829345703125,-5.755615234375,-13.322998046875
0.0175,19.148681640625,-2.312255859375,-16.005615234375
0.018,17.747314453125,1.651611328125,-18.568115234375
0.0185,15.865478515625,5.335205078125,-20.369873046875
0.019,12.622314453125,8.258056640625,-20.129638671875
0.0195,9.138916015625,11.461181640625,-20.049560546875
0.02,4.494384765625,15.184814453125,-19.328857421875
0.0205,-0.230224609375,17.987548828125,-17.807373046875
0.021,-3.913818359375,19.869384765625,-16.085693359375
0.0215,-7.156982421875,20.950439453125,-14.163818359375
0.022,-10.360107421875,20.469970703125,-10.720458984375
0.0225,-13.963623046875,19.709228515625,-6.476318359375
0.023,-16.806396484375,19.068603515625,-3.032958984375
0.0235,-19.408935546875,17.266845703125,1.371337890625
0.024,-20.890380859375,15.224853515625,4.814697265625
0.0245,-20.850341796875,12.141845703125,7.817626953125
0.025,-20.570068359375,8.618408203125,10.980712890625
0.0255,-19.889404296875,4.174072265625,14.744384765625
0.026,-18.848388671875,0.330322265625,17.547119140625
0.0265,-17.126708984375,-3.393310546875,19.509033203125
0.027,-15.244873046875,-6.716552734375,21.070556640625
0.0275,-11.441162109375,-9.799560546875,20.469970703125
0.028,-7.317138671875,-13.282958984375,19.989501953125
0.0285,-3.153076171875,-16.526123046875,19.228759765625
0.029,1.851806640625,-19.128662109375,17.306884765625
0.0295,5.255126953125,-20.570068359375,15.465087890625
0.03,8.338134765625,-20.970458984375,12.942626953125
0.0305,11.541259765625,-20.570068359375,9.579345703125
0.031,15.304931640625,-19.649169921875,4.974853515625
0.0315,18.027587890625,-18.528076171875,1.211181640625
0.032,20.189697265625,-16.686279296875,-2.712646484375
0.0325,21.230712890625,-14.604248046875,-5.955810546875
0.033,20.790283203125,-11.040771484375,-8.958740234375
0.0335,20.349853515625,-7.197021484375,-12.322021484375
0.034,19.709228515625,-3.273193359375,-15.565185546875
0.0345,18.267822265625,0.970947265625,-18.327880859375
0.035,16.305908203125,4.454345703125,-19.929443359375
0.0355,13.943603515625,7.577392578125,-20.810302734375
0.036,10.179931640625,10.740478515625,-20.329833984375
0.0365,5.335205078125,14.424072265625,-19.408935546875
0.037,1.451416015625,17.306884765625,-18.568115234375
0.0375,-3.072998046875,19.589111328125,-16.646240234375
0.038,-6.396240234375,20.790283203125,-14.764404296875
0.0385,-9.479248046875,20.550048828125,-11.601318359375
0.039,-12.602294921875,20.189697265625,-8.197998046875
0.0395,-16.005615234375,19.268798828125,-3.993896484375
0.04,-18.688232421875,17.587158203125,0.330322265625
0.0405,-20.289794921875,15.745361328125,3.653564453125
0.041,-21.010498046875,13.343017578125,6.696533203125
0.0415,-20.329833984375,9.619384765625,9.779541015625
0.042,-19.729248046875,5.455322265625,13.302978515625
0.0425,-19.128662109375,1.931884765625,16.185791015625
0.043,-17.647216796875,-2.112060546875,18.788330078125
0.0435,-15.645263671875,-5.435302734375,20.149658203125
0.044,-12.762451171875,-8.358154296875,20.309814453125
0.0445,-9.158935546875,-11.521240234375,20.029541015625
0.045,-4.274169921875,-15.164794921875,19.068603515625
0.0455,0.090087890625,-17.847412109375,17.587158203125
0.046,3.773681640625,-19.729248046875,16.025634765625
0.0465,6.936767578125,-20.650146484375,14.023681640625
0.047,10.179931640625,-20.129638671875,10.380126953125
0.0475,13.383056640625,-19.609130859375,6.736572265625
0.048,16.466064453125,-18.848388671875,3.052978515625
0.0485,19.068603515625,-17.086669921875,-1.351318359375
0.049,20.229736328125,-15.204833984375,-4.394287109375
0.0495,20.550048828125,-12.362060546875,-7.397216796875
0.05,19.989501953125,-8.798583984375,-10.480224609375
0.0505,19.388916015625,-4.554443359375,-14.003662109375
0.051,18.508056640625,-0.910888671875,-16.766357421875
0.0515,17.026611328125,2.892822265625,-19.088623046875
0.052,14.824462890625,6.135986328125,-20.209716796875
0.0525,11.301025390625,9.259033203125,-19.889404296875
0.053,7.497314453125,12.662353515625,-19.689208984375
0.0535,3.052978515625,16.065673828125,-18.888427734375
0.054,-1.751708984375,18.628173828125,-16.966552734375
0.0545,-4.954833984375,20.149658203125,-15.405029296875
0.055,-8.077880859375,20.710205078125,-13.082763671875
0.0555,-11.401123046875,20.109619140625,-9.279052734375
0.056,-14.764404296875,19.388916015625,-5.315185546875
0.0565,-17.647216796875,18.307861328125,-1.471435546875
0.057,-20.009521484375,16.385986328125,2.732666015625
0.0575,-20.770263671875,14.223876953125,5.695556640625
0.058,-20.650146484375,10.820556640625,8.938720703125
0.0585,-20.169677734375,6.976806640625,12.181884765625
0.059,-19.529052734375,2.972900390625,15.625244140625
0.0595,-18.087646484375,-1.151123046875,18.227783203125
0.06,-16.446044921875,-4.634521484375,20.109619140625
0.0605,-14.043701171875,-7.757568359375,20.910400390625
0.061,-9.919677734375,-11.000732421875,20.229736328125
0.0615,-5.755615234375,-14.404052734375,19.629150390625
0.062,-1.311279296875,-17.567138671875,18.548095703125
0.0625,3.373291015625,-19.849365234375,16.506103515625
0.063,6.376220703125,-20.810302734375,14.704345703125
0.0635,9.619384765625,-20.970458984375,11.821533203125
0.064,13.022705078125,-20.249755859375,7.737548828125
0.0645,16.265869140625,-19.408935546875,3.773681640625
0.065,18.948486328125,-17.927490234375,-0.470458984375
0.0655,20.910400390625,-15.965576171875,-4.234130859375
0.066,21.230712890625,-13.322998046875,-7.116943359375
0.0665,20.750244140625,-9.439208984375,-10.480224609375
0.067,20.029541015625,-5.515380859375,-13.643310546875
0.0675,19.388916015625,-1.671630859375,-16.846435546875
0.068,17.587158203125,2.572509765625,-19.288818359375
0.0685,15.625244140625,5.775634765625,-20.530029296875
0.069,12.742431640625,8.898681640625,-20.930419921875
0.0695,8.298095703125,12.382080078125,-20.169677734375
0.07,3.973876953125,15.625244140625,-19.288818359375
0.0705,-0.510498046875,18.468017578125,-17.967529296875
0.071,-4.714599609375,20.550048828125,-16.085693359375
0.0715,-7.597412109375,20.990478515625,-13.843505859375
0.072,-10.920654296875,20.750244140625,-10.320068359375
0.0725,-14.323974609375,19.989501953125,-6.396240234375
0.073,-17.326904296875,18.948486328125,-2.432373046875
0.0735,-19.729248046875,17.106689453125,1.851806640625
0.074,-21.130615234375,15.064697265625,5.175048828125
0.0745,-21.250732421875,12.101806640625,8.258056640625
0.075,-20.530029296875,7.937744140625,11.701416015625
0.0755,-19.849365234375,4.053955078125,14.784423828125
0.076,-18.928466796875,0.170166015625,17.747314453125
0.0765,-17.086669921875,-3.913818359375,19.989501953125
0.077,-14.764404296875,-6.836669921875,20.710205078125
0.0775,-11.561279296875,-9.959716796875,20.750244140625
0.078,-7.076904296875,-13.523193359375,20.029541015625
0.0785,-2.632568359375,-16.646240234375,18.948486328125
0.079,1.851806640625,-19.048583984375,17.146728515625
0.0795,5.455322265625,-20.770263671875,15.505126953125
0.08,8.298095703125,-20.930419921875,12.942626953125
0.0805,11.741455078125,-20.369873046875,9.058837890625
0.081,15.024658203125,-19.769287109375,5.255126953125
0.0815,18.067626953125,-18.488037109375,1.131103515625
0.082,20.229736328125,-16.526123046875,-2.992919921875
0.0825,21.030517578125,-14.364013671875,-5.915771484375
0.083,20.990478515625,-11.120849609375,-9.038818359375
0.0835,20.229736328125,-6.756591796875,-12.682373046875
0.084,19.549072265625,-3.153076171875,-15.565185546875
0.0845,18.227783203125,0.890869140625,-18.207763671875
0.085,16.506103515625,4.694580078125,-20.369873046875
0.0855,13.663330078125,7.657470703125,-20.530029296875
0.086,10.099853515625,10.820556640625,-20.289794921875
0.0865,5.655517578125,14.384033203125,-19.689208984375
0.087,1.131103515625,17.507080078125,-18.528076171875
0.0875,-3.233154296875,19.629150390625,-16.566162109375
0.088,-6.436279296875,20.830322265625,-14.884521484375
0.0885,-9.519287109375,20.870361328125,-11.881591796875
0.089,-13.162841796875,20.069580078125,-7.597412109375
0.0895,-16.045654296875,19.468994140625,-4.114013671875
0.09,-18.928466796875,17.907470703125,0.290283203125
0.0905,-20.890380859375,15.865478515625,4.174072265625
0.091,-21.130615234375,13.142822265625,7.056884765625
0.0915,-20.890380859375,9.619384765625,10.340087890625
0.092,-20.169677734375,5.215087890625,13.943603515625
0.0925,-19.368896484375,1.451416015625,16.946533203125
0.093,-17.687255859375,-2.512451171875,19.188720703125
0.0935,-15.925537109375,-5.955810546875,20.950439453125
0.094,-12.722412109375,-8.958740234375,20.870361328125
0.0945,-8.518310546875,-12.322021484375,20.229736328125
0.095,-4.354248046875,-15.565185546875,19.549072265625
0.0955,0.570556640625,-18.568115234375,17.947509765625
0.096,4.534423828125,-20.489990234375,15.985595703125
0.0965,7.417236328125,-21.050537109375,13.903564453125
0.097,10.580322265625,-21.010498046875,10.620361328125
0.0975,14.384033203125,-19.889404296875,6.095947265625
0.098,17.186767578125,-19.048583984375,2.532470703125
0.0985,19.629150390625,-17.286865234375,-1.631591796875
0.099,21.270751953125,-15.284912109375,-5.235107421875
0.0995,20.990478515625,-12.121826171875,-8.077880859375
0.1,20.550048828125,-8.278076171875,-11.481201171875
0.1005,19.869384765625,-4.314208984375,-14.684326171875
0.101,18.868408203125,-0.310302734375,-17.687255859375
0.1015,16.906494140625,3.573486328125,-19.609130859375
0.102,14.784423828125,6.656494140625,-20.650146484375
0.1025,11.501220703125,9.739501953125,-20.570068359375
0.103,6.656494140625,13.463134765625,-19.689208984375
0.1035,2.892822265625,16.305908203125,-18.928466796875
0.104,-1.791748046875,18.868408203125,-17.166748046875
0.1045,-5.515380859375,20.590087890625,-15.405029296875
0.105,-8.358154296875,20.469970703125,-12.722412109375
0.1055,-11.481201171875,20.349853515625,-9.439208984375
0.106,-15.084716796875,19.509033203125,-5.155029296875
0.1065,-17.807373046875,18.187744140625,-1.151123046875
0.107,-19.769287109375,16.345947265625,2.612548828125
0.1075,-20.930419921875,14.263916015625,5.775634765625
0.108,-20.570068359375,10.860595703125,8.778564453125
0.1085,-19.969482421875,6.576416015625,12.462158203125
0.109,-19.368896484375,3.173095703125,15.224853515625
0.1095,-18.207763671875,-0.910888671875,18.067626953125
0.11,-16.285888671875,-4.634521484375,19.909423828125
0.1105,-13.763427734375,-7.357177734375,20.229736328125
0.111,-10.520263671875,-10.400146484375,20.189697265625
0.1115,-5.595458984375,-14.243896484375,19.308837890625
0.112,-1.431396484375,-17.006591796875,18.147705078125
0.1125,2.612548828125,-19.088623046875,16.466064453125
0.113,6.015869140625,-20.650146484375,14.784423828125
0.1135,8.978759765625,-20.209716796875,11.661376953125
0.114,12.261962890625,-19.729248046875,7.937744140625
0.1145,15.465087890625,-19.208740234375,4.334228515625
0.115,18.227783203125,-17.607177734375,0.050048828125
0.1155,19.989501953125,-15.765380859375,-3.513427734375
0.116,20.469970703125,-13.322998046875,-6.396240234375
0.1165,20.229736328125,-9.999755859375,-9.439208984375
0.117,19.589111328125,-5.515380859375,-13.202880859375
0.1175,18.908447265625,-2.152099609375,-15.925537109375
0.118,17.507080078125,1.731689453125,-18.327880859375
0.1185,15.705322265625,5.295166015625,-20.169677734375
0.119,12.422119140625,8.177978515625,-19.849365234375
0.1195,8.938720703125,11.341064453125,-19.729248046875
0.12,4.414306640625,14.944580078125,-19.088623046875
0.1205,-0.310302734375,17.787353515625,-17.487060546875
0.121,-3.873779296875,19.509033203125,-15.885498046875
0.1215,-7.076904296875,20.630126953125,-13.963623046875
0.122,-10.199951171875,20.229736328125,-10.560302734375
0.1225,-13.803466796875,19.428955078125,-6.356201171875
0.123,-16.606201171875,18.748291015625,-2.912841796875
0.1235,-19.128662109375,16.986572265625,1.331298828125
0.124,-20.570068359375,15.024658203125,4.734619140625
0.1245,-20.489990234375,11.941650390625,7.697509765625
0.125,-20.209716796875,8.458251953125,10.860595703125
0.1255,-19.609130859375,4.134033203125,14.544189453125
0.126,-18.568115234375,0.290283203125,17.306884765625
0.1265,-16.846435546875,-3.353271484375,19.228759765625
0.127,-15.004638671875,-6.636474609375,20.750244140625
0.1275,-11.240966796875,-9.679443359375,20.189697265625
0.128,-7.076904296875,-13.162841796875,19.709228515625
0.1285,-3.032958984375,-16.365966796875,18.988525390625
0.129,1.931884765625,-19.008544921875,17.026611328125
0.1295,5.255126953125,-20.369873046875,15.344970703125
0.13,8.298095703125,-20.730224609375,12.782470703125
0.1305,11.501220703125,-20.369873046875,9.419189453125
0.131,15.184814453125,-19.489013671875,4.894775390625
0.1315,17.947509765625,-18.287841796875,1.010986328125
0.132,19.989501953125,-16.526123046875,-2.752685546875
0.1325,21.110595703125,-14.404052734375,-5.915771484375
0.133,20.590087890625,-10.840576171875,-8.958740234375
0.1335,20.149658203125,-6.956787109375,-12.322021484375
0.134,19.589111328125,-3.153076171875,-15.565185546875
0.1345,18.107666015625,1.131103515625,-18.367919921875
0.135,16.185791015625,4.614501953125,-19.929443359375
0.1355,13.783447265625,7.697509765625,-20.730224609375
0.136,9.979736328125,10.820556640625,-20.249755859375
0.1365,5.094970703125,14.584228515625,-19.368896484375
0.137,1.131103515625,17.427001953125,-18.447998046875
0.1375,-3.273193359375,19.749267578125,-16.606201171875
0.138,-6.596435546875,20.910400390625,-14.724365234375
0.1385,-9.759521484375,20.630126953125,-11.401123046875
0.139,-12.922607421875,20.149658203125,-7.877685546875
0.1395,-16.285888671875,19.268798828125,-3.793701171875
0.14,-18.928466796875,17.507080078125,0.690673828125
0.1405,-20.489990234375,15.665283203125,4.013916015625
0.141,-21.130615234375,13.142822265625,7.056884765625
0.1415,-20.489990234375,9.339111328125,10.179931640625
0.142,-19.809326171875,5.094970703125,13.703369140625
0.1425,-19.168701171875,1.571533203125,16.626220703125
0.143,-17.647216796875,-2.592529296875,19.228759765625
0.1435,-15.525146484375,-5.875732421875,20.469970703125
0.144,-12.522216796875,-8.918701171875,20.590087890625
0.1445,-8.838623046875,-12.121826171875,20.229736328125
0.145,-3.873779296875,-15.765380859375,19.228759765625
0.1455,0.650634765625,-18.367919921875,17.627197265625
0.146,4.294189453125,-20.209716796875,15.985595703125
0.1465,7.457275390625,-21.050537109375,13.903564453125
0.147,10.820556640625,-20.489990234375,10.099853515625
0.1475,14.063720703125,-19.809326171875,6.336181640625
0.148,17.146728515625,-19.008544921875,2.532470703125
0.1485,19.709228515625,-17.046630859375,-1.951904296875
0.149,20.790283203125,-15.084716796875,-4.954833984375
0.1495,20.950439453125,-12.121826171875,-8.037841796875
0.15,20.349853515625,-8.318115234375,-11.240966796875
0.1505,19.669189453125,-4.114013671875,-14.724365234375
0.151,18.588134765625,-0.310302734375,-17.447021484375
0.1515,16.986572265625,3.533447265625,-19.689208984375
0.152,14.704345703125,6.696533203125,-20.690185546875
0.1525,10.900634765625,9.899658203125,-20.209716796875
0.153,7.056884765625,13.302978515625,-19.889404296875
0.1535,2.532470703125,16.706298828125,-18.968505859375
0.154,-2.352294921875,19.228759765625,-16.966552734375
0.1545,-5.555419921875,20.550048828125,-15.324951171875
0.155,-8.678466796875,21.070556640625,-12.842529296875
0.1555,-12.041748046875,20.389892578125,-8.958740234375
0.156,-15.405029296875,19.509033203125,-4.954833984375
0.1565,-18.207763671875,18.387939453125,-0.990966796875
0.157,-20.449951171875,16.345947265625,3.253173828125
0.1575,-21.130615234375,14.063720703125,6.135986328125
0.158,-20.930419921875,10.540283203125,9.459228515625
0.1585,-20.329833984375,6.576416015625,12.782470703125
0.159,-19.649169921875,2.572509765625,16.065673828125
0.1595,-18.087646484375,-1.591552734375,18.628173828125
0.16,-16.365966796875,-5.034912109375,20.429931640625
0.1605,-13.843505859375,-8.197998046875,21.110595703125
0.161,-9.679443359375,-11.441162109375,20.349853515625
0.1615,-5.435302734375,-14.764404296875,19.709228515625
0.162,-0.950927734375,-17.887451171875,18.548095703125
0.1625,3.693603515625,-20.129638671875,16.506103515625
0.163,6.656494140625,-20.970458984375,14.584228515625
0.1635,9.899658203125,-21.010498046875,11.581298828125
0.164,13.343017578125,-20.289794921875,7.537353515625
0.1645,16.506103515625,-19.368896484375,3.533447265625
0.165,19.188720703125,-17.807373046875,-0.710693359375
0.1655,21.030517578125,-15.885498046875,-4.474365234375
0.166,21.310791015625,-13.162841796875,-7.397216796875
0.1665,20.790283203125,-9.279052734375,-10.760498046875
0.167,20.149658203125,-5.315185546875,-13.963623046875
0.1675,19.428955078125,-1.431396484375,-17.126708984375
0.168,17.587158203125,2.732666015625,-19.489013671875
0.1685,15.505126953125,5.935791015625,-20.650146484375
0.169,12.582275390625,9.018798828125,-21.010498046875
0.1695,8.057861328125,12.622314453125,-20.209716796875
0.17,3.773681640625,15.825439453125,-19.288818359375
0.1705,-0.790771484375,18.628173828125,-17.807373046875
0.171,-4.954833984375,20.630126953125,-16.005615234375
0.1715,-7.837646484375,21.070556640625,-13.683349609375
0.172,-11.160888671875,20.750244140625,-10.239990234375
0.1725,-14.564208984375,20.029541015625,-6.196044921875
0.173,-17.567138671875,18.948486328125,-2.192138671875
0.1735,-19.929443359375,16.986572265625,2.092041015625
0.174,-21.210693359375,14.984619140625,5.415283203125
0.1745,-21.290771484375,11.901611328125,8.458251953125
0.175,-20.650146484375,7.697509765625,12.021728515625
0.1755,-19.889404296875,3.853759765625,15.064697265625
0.176,-18.888427734375,-0.190185546875,17.987548828125
0.1765,-17.046630859375,-4.234130859375,20.269775390625
0.177,-14.644287109375,-7.116943359375,20.830322265625
0.1775,-11.361083984375,-10.239990234375,20.830322265625
0.178,-6.756591796875,-13.883544921875,20.109619140625
0.1785,-2.392333984375,-16.926513671875,18.948486328125
0.179,2.172119140625,-19.248779296875,17.106689453125
0.1795,5.735595703125,-20.970458984375,15.425048828125
0.18,8.658447265625,-21.050537109375,12.702392578125
0.1805,12.101806640625,-20.449951171875,8.818603515625
0.181,15.385009765625,-19.769287109375,5.054931640625
