wavelength,x,y,z
0.0,21.190673828125,-4.394287109375,-16.005615234375
0.0005,19.589111328125,-0.270263671875,-18.568115234375
0.001,17.346923828125,3.853759765625,-20.449951171875
0.0015,15.184814453125,7.497314453125,-22.011474609375
0.002,11.541259765625,10.860595703125,-21.771240234375
0.0025,7.817626953125,14.263916015625,-21.611083984375
0.003,3.253173828125,17.587158203125,-20.489990234375
0.0035,-2.312255859375,20.109619140625,-17.807373046875
0.004,-5.915771484375,21.270751953125,-15.525146484375
0.0045,-9.239013671875,21.831298828125,-13.082763671875
0.005,-12.402099609375,21.871337890625,-10.159912109375
0.0055,-16.285888671875,20.670166015625,-5.275146484375
0.006,-18.888427734375,19.028564453125,-1.151123046875
0.0065,-20.810302734375,16.626220703125,3.253173828125
0.007,-21.931396484375,14.143798828125,6.776611328125
0.0075,-21.811279296875,10.740478515625,10.019775390625
0.008,-21.691162109375,7.377197265625,13.383056640625
0.0085,-20.810302734375,3.012939453125,16.906494140625
0.009,-18.728271484375,-1.751708984375,19.509033203125
0.0095,-16.325927734375,-5.475341796875,20.870361328125
0.01,-14.163818359375,-8.678466796875,22.031494140625
0.0105,-10.800537109375,-11.881591796875,21.911376953125
0.011,-5.915771484375,-15.645263671875,20.990478515625
0.0115,-1.591552734375,-18.327880859375,19.549072265625
0.012,3.413330078125,-20.449951171875,16.946533203125
0.0125,6.896728515625,-21.450927734375,14.744384765625
0.013,10.219970703125,-21.531005859375,11.781494140625
0.0135,13.102783203125,-21.531005859375,8.978759765625
0.014,16.866455078125,-20.289794921875,4.174072265625
0.0145,19.428955078125,-18.007568359375,-0.590576171875
0.015,20.870361328125,-15.765380859375,-4.194091796875
0.0155,21.791259765625,-13.403076171875,-7.517333984375
0.016,21.470947265625,-9.999755859375,-10.640380859375
0.0165,20.990478515625,-5.915771484375,-14.323974609375
0.017,20.029541015625,-2.152099609375,-17.166748046875
0.0175,17.947509765625,2.492431640625,-19.689208984375
0.018,15.505126953125,6.095947265625,-20.850341796875
0.0185,12.822509765625,9.259033203125,-21.410888671875
0.019,9.659423828125,12.422119140625,-21.531005859375
0.0195,4.414306640625,16.225830078125,-20.209716796875
0.02,-0.270263671875,18.628173828125,-18.287841796875
0.0205,-4.274169921875,20.349853515625,-16.165771484375
0.021,-7.677490234375,21.270751953125,-13.963623046875
0.0215,-10.880615234375,21.110595703125,-10.720458984375
0.022,-14.083740234375,20.670166015625,-7.397216796875
0.0225,-17.206787109375,19.549072265625,-3.233154296875
0.023,-19.569091796875,16.946533203125,1.691650390625
0.0235,-20.650146484375,14.744384765625,4.974853515625
0.024,-21.290771484375,12.141845703125,8.177978515625
0.0245,-21.170654296875,8.938720703125,11.260986328125
0.025,-20.369873046875,4.374267578125,15.064697265625
0.0255,-19.088623046875,0.490478515625,17.707275390625
0.026,-17.086669921875,-3.673583984375,19.869384765625
0.0265,-14.804443359375,-6.996826171875,20.990478515625
0.027,-11.681396484375,-10.199951171875,21.110595703125
0.0275,-8.318115234375,-13.443115234375,21.110595703125
0.028,-3.353271484375,-16.846435546875,19.789306640625
0.0285,1.771728515625,-19.128662109375,17.226806640625
0.029,5.094970703125,-20.369873046875,15.344970703125
0.0295,8.378173828125,-21.210693359375,13.062744140625
0.03,11.581298828125,-21.010498046875,9.899658203125
0.0305,15.104736328125,-20.209716796875,5.775634765625
0.031,17.907470703125,-18.768310546875,1.731689453125
0.0315,20.109619140625,-16.365966796875,-2.912841796875
0.032,20.950439453125,-14.083740234375,-6.035888671875
0.0325,21.190673828125,-11.080810546875,-9.319091796875
0.033,21.110595703125,-7.797607421875,-12.682373046875
0.0335,20.269775390625,-3.433349609375,-16.165771484375
0.034,18.267822265625,1.091064453125,-18.568115234375
0.0345,16.265869140625,4.814697265625,-20.329833984375
0.035,13.863525390625,8.097900390625,-21.290771484375
0.0355,10.420166015625,11.381103515625,-21.130615234375
0.036,6.216064453125,14.904541015625,-20.650146484375
0.0365,1.571533203125,17.907470703125,-19.288818359375
0.037,-3.553466796875,20.029541015625,-16.606201171875
0.0375,-6.676513671875,20.910400390625,-14.564208984375
0.038,-9.999755859375,21.390869140625,-11.921630859375
0.0385,-13.282958984375,21.110595703125,-8.638427734375
0.039,-16.646240234375,19.989501953125,-4.194091796875
0.0395,-19.208740234375,17.947509765625,0.370361328125
0.04,-21.010498046875,15.545166015625,4.494384765625
0.0405,-21.611083984375,12.982666015625,7.617431640625
0.041,-21.571044921875,9.619384765625,11.020751953125
0.0415,-21.130615234375,5.615478515625,14.544189453125
0.042,-20.169677734375,1.531494140625,17.747314453125
0.0425,-17.767333984375,-3.153076171875,19.949462890625
0.043,-15.565185546875,-6.476318359375,21.150634765625
0.0435,-13.002685546875,-9.719482421875,21.951416015625
0.044,-9.158935546875,-13.082763671875,21.591064453125
0.0445,-4.514404296875,-16.486083984375,20.429931640625
0.045,0.370361328125,-19.088623046875,18.508056640625
0.0455,4.894775390625,-20.930419921875,16.025634765625
0.046,7.977783203125,-21.410888671875,13.703369140625
0.0465,11.381103515625,-21.611083984375,10.740478515625
0.047,14.744384765625,-21.090576171875,7.056884765625
0.0475,17.827392578125,-19.649169921875,2.652587890625
0.048,20.109619140625,-17.166748046875,-2.072021484375
0.0485,21.470947265625,-15.004638671875,-5.675537109375
0.049,21.791259765625,-12.201904296875,-8.838623046875
0.0495,21.631103515625,-8.518310546875,-12.362060546875
0.05,20.790283203125,-4.394287109375,-15.645263671875
0.0505,19.509033203125,-0.190185546875,-18.528076171875
0.051,17.026611328125,4.294189453125,-20.489990234375
0.0515,14.584228515625,7.417236328125,-21.290771484375
0.052,11.701416015625,10.700439453125,-21.771240234375
0.0525,7.497314453125,14.303955078125,-21.290771484375
0.053,2.852783203125,17.346923828125,-19.889404296875
0.0535,-2.072021484375,19.509033203125,-17.447021484375
0.054,-5.955810546875,21.110595703125,-15.405029296875
0.0545,-9.038818359375,21.390869140625,-12.802490234375
0.055,-12.241943359375,21.310791015625,-9.719482421875
0.0555,-15.725341796875,20.550048828125,-5.715576171875
0.056,-18.568115234375,18.828369140625,-1.231201171875
0.0565,-20.489990234375,16.225830078125,3.333251953125
0.057,-21.410888671875,13.943603515625,6.496337890625
0.0575,-21.771240234375,10.900634765625,9.739501953125
0.058,-21.330810546875,6.896728515625,13.503173828125
0.0585,-20.409912109375,2.932861328125,16.586181640625
0.059,-18.608154296875,-1.391357421875,19.068603515625
0.0595,-16.486083984375,-5.435302734375,21.030517578125
0.06,-13.803466796875,-8.398193359375,21.430908203125
0.0605,-10.840576171875,-11.561279296875,21.631103515625
0.061,-6.276123046875,-15.284912109375,20.990478515625
0.0615,-1.431396484375,-18.207763671875,19.228759765625
0.062,3.213134765625,-19.969482421875,16.666259765625
0.0625,6.576416015625,-21.170654296875,14.744384765625
0.063,9.859619140625,-21.490966796875,12.021728515625
0.0635,13.182861328125,-21.050537109375,8.458251953125
0.064,16.385986328125,-20.169677734375,4.534423828125
0.0645,19.108642578125,-18.127685546875,-0.190185546875
0.065,20.910400390625,-15.725341796875,-4.354248046875
0.0655,21.350830078125,-13.162841796875,-7.397216796875
0.066,21.631103515625,-10.199951171875,-10.600341796875
0.0665,21.110595703125,-5.795654296875,-14.444091796875
0.067,19.989501953125,-1.831787109375,-17.366943359375
0.0675,17.747314453125,2.452392578125,-19.368896484375
0.068,15.745361328125,6.176025390625,-21.130615234375
0.0685,12.782470703125,9.259033203125,-21.450927734375
0.069,9.259033203125,12.622314453125,-21.290771484375
0.0695,4.854736328125,15.985595703125,-20.449951171875
0.07,-0.310302734375,18.828369140625,-18.407958984375
0.0705,-4.594482421875,20.469970703125,-15.965576171875
0.071,-7.677490234375,21.150634765625,-13.843505859375
0.0715,-10.960693359375,21.470947265625,-11.160888671875
0.072,-14.604248046875,20.710205078125,-6.916748046875
0.0725,-17.326904296875,19.509033203125,-3.072998046875
0.073,-19.689208984375,17.146728515625,1.571533203125
0.0735,-21.290771484375,14.784423828125,5.415283203125
0.074,-21.410888671875,11.901611328125,8.458251953125
0.0745,-21.490966796875,8.658447265625,11.861572265625
0.075,-20.770263671875,4.414306640625,15.465087890625
0.0755,-19.328857421875,0.050048828125,18.427978515625
0.076,-16.886474609375,-4.114013671875,20.109619140625
0.0765,-14.804443359375,-7.237060546875,21.350830078125
0.077,-11.921630859375,-10.520263671875,21.711181640625
0.0775,-7.557373046875,-14.203857421875,21.070556640625
0.078,-3.353271484375,-17.006591796875,19.869384765625
0.0785,1.771728515625,-19.408935546875,17.507080078125
0.079,5.735595703125,-20.970458984375,15.344970703125
0.0795,8.698486328125,-21.130615234375,12.742431640625
0.08,11.781494140625,-21.450927734375,10.219970703125
0.0805,15.665283203125,-20.489990234375,5.615478515625
0.081,18.307861328125,-18.808349609375,1.291259765625
0.0815,20.189697265625,-16.526123046875,-2.912841796875
0.082,21.470947265625,-14.243896484375,-6.396240234375
0.0825,21.470947265625,-11.120849609375,-9.479248046875
0.083,21.230712890625,-7.156982421875,-13.282958984375
0.0835,20.389892578125,-3.473388671875,-16.205810546875
0.084,18.588134765625,1.131103515625,-18.928466796875
0.0845,16.145751953125,5.094970703125,-20.570068359375
0.085,13.663330078125,8.177978515625,-21.130615234375
0.0855,10.980712890625,11.220947265625,-21.651123046875
0.086,5.775634765625,15.304931640625,-20.650146484375
0.0865,1.491455078125,17.867431640625,-19.088623046875
0.087,-3.072998046875,19.789306640625,-16.726318359375
0.0875,-6.756591796875,21.190673828125,-14.724365234375
0.088,-9.879638671875,21.110595703125,-11.681396484375
0.0885,-13.082763671875,20.950439453125,-8.758544921875
0.089,-16.406005859375,20.109619140625,-4.594482421875
0.0895,-19.048583984375,17.827392578125,0.250244140625
0.09,-20.570068359375,15.505126953125,4.093994140625
0.0905,-21.330810546875,13.102783203125,7.297119140625
0.091,-21.531005859375,10.179931640625,10.380126953125
0.0915,-20.930419921875,5.495361328125,14.544189453125
0.092,-19.929443359375,1.851806640625,17.186767578125
0.0925,-17.767333984375,-2.432373046875,19.509033203125
0.093,-15.725341796875,-6.276123046875,21.190673828125
0.0935,-12.722412109375,-9.279052734375,21.190673828125
0.094,-9.879638671875,-12.362060546875,21.510986328125
0.0945,-4.794677734375,-16.165771484375,20.469970703125
0.095,0.290283203125,-18.728271484375,18.187744140625
0.0955,4.134033203125,-20.209716796875,15.985595703125
0.096,7.537353515625,-21.410888671875,13.983642578125
0.0965,10.780517578125,-21.290771484375,11.020751953125
0.097,14.384033203125,-20.650146484375,6.976806640625
0.0975,17.226806640625,-19.729248046875,3.173095703125
0.098,19.709228515625,-17.246826171875,-1.591552734375
0.0985,21.070556640625,-14.964599609375,-5.235107421875
0.099,21.270751953125,-12.081787109375,-8.318115234375
0.0995,21.430908203125,-9.158935546875,-11.521240234375
0.1,20.750244140625,-4.514404296875,-15.445068359375
0.1005,19.028564453125,-0.310302734375,-18.047607421875
0.101,16.906494140625,3.613525390625,-19.769287109375
0.1015,14.864501953125,7.177001953125,-21.330810546875
0.102,11.461181640625,10.380126953125,-21.170654296875
0.1025,7.617431640625,13.783447265625,-20.930419921875
0.103,3.333251953125,16.946533203125,-19.929443359375
0.1035,-2.031982421875,19.388916015625,-17.326904296875
0.104,-5.555419921875,20.590087890625,-15.204833984375
0.1045,-8.878662109375,21.110595703125,-12.802490234375
0.105,-11.801513671875,21.270751953125,-10.199951171875
0.1055,-15.685302734375,20.149658203125,-5.435302734375
0.106,-18.127685546875,18.548095703125,-1.311279296875
0.1065,-20.049560546875,16.265869140625,2.812744140625
0.107,-21.210693359375,13.943603515625,6.256103515625
0.1075,-21.130615234375,10.700439453125,9.419189453125
0.108,-21.050537109375,7.297119140625,12.782470703125
0.1085,-20.329833984375,3.173095703125,16.145751953125
0.109,-18.247802734375,-1.391357421875,18.748291015625
0.1095,-16.005615234375,-4.994873046875,20.109619140625
0.11,-13.843505859375,-8.117919921875,21.190673828125
0.1105,-10.840576171875,-11.160888671875,21.230712890625
0.111,-5.915771484375,-14.884521484375,20.269775390625
0.1115,-1.791748046875,-17.487060546875,18.908447265625
0.112,2.892822265625,-19.529052734375,16.546142578125
0.1125,6.376220703125,-20.650146484375,14.424072265625
0.113,9.499267578125,-20.770263671875,11.581298828125
0.1135,12.382080078125,-20.810302734375,8.978759765625
0.114,15.985595703125,-19.689208984375,4.454345703125
0.1145,18.468017578125,-17.447021484375,-0.190185546875
0.115,19.869384765625,-15.405029296875,-3.673583984375
0.1155,20.750244140625,-13.122802734375,-6.836669921875
0.116,20.630126953125,-10.119873046875,-9.799560546875
0.1165,20.149658203125,-5.915771484375,-13.443115234375
0.117,19.348876953125,-2.312255859375,-16.285888671875
0.1175,17.306884765625,2.052001953125,-18.568115234375
0.118,15.064697265625,5.535400390625,-19.889404296875
0.1185,12.422119140625,8.578369140625,-20.329833984375
0.119,9.699462890625,11.501220703125,-20.650146484375
0.1195,4.534423828125,15.304931640625,-19.489013671875
0.12,0.130126953125,17.627197265625,-17.447021484375
0.1205,-3.713623046875,19.228759765625,-15.565185546875
0.121,-6.996826171875,20.309814453125,-13.723388671875
0.1215,-10.119873046875,20.189697265625,-10.640380859375
0.122,-13.282958984375,19.869384765625,-7.317138671875
0.1225,-16.285888671875,18.868408203125,-3.473388671875
0.123,-18.528076171875,16.466064453125,1.251220703125
0.1235,-19.689208984375,14.384033203125,4.374267578125
0.124,-20.329833984375,11.821533203125,7.417236328125
0.1245,-20.329833984375,8.938720703125,10.460205078125
0.125,-19.609130859375,4.534423828125,14.223876953125
0.1255,-18.327880859375,0.690673828125,16.786376953125
0.126,-16.446044921875,-3.193115234375,18.788330078125
0.1265,-14.484130859375,-6.436279296875,20.149658203125
0.127,-11.401123046875,-9.479248046875,20.189697265625
0.1275,-8.197998046875,-12.682373046875,20.229736328125
0.128,-3.513427734375,-15.965576171875,19.108642578125
0.1285,1.411376953125,-18.327880859375,16.666259765625
0.129,4.614501953125,-19.489013671875,14.904541015625
0.1295,7.817626953125,-20.369873046875,12.822509765625
0.13,10.860595703125,-20.249755859375,9.939697265625
0.1305,14.384033203125,-19.529052734375,5.735595703125
0.131,17.106689453125,-18.167724609375,1.891845703125
0.1315,19.188720703125,-15.925537109375,-2.432373046875
0.132,20.189697265625,-13.723388671875,-5.435302734375
0.1325,20.349853515625,-10.880615234375,-8.638427734375
0.133,20.309814453125,-7.717529296875,-11.841552734375
0.1335,19.549072265625,-3.553466796875,-15.284912109375
0.134,17.667236328125,0.810791015625,-17.727294921875
0.1345,15.745361328125,4.294189453125,-19.288818359375
0.135,13.623291015625,7.497314453125,-20.449951171875
0.1355,10.300048828125,10.580322265625,-20.369873046875
0.136,6.095947265625,14.143798828125,-19.769287109375
0.1365,1.851806640625,16.946533203125,-18.608154296875
0.137,-3.072998046875,19.068603515625,-16.085693359375
0.1375,-6.035888671875,19.989501953125,-14.203857421875
0.138,-9.279052734375,20.469970703125,-11.681396484375
0.1385,-12.362060546875,20.349853515625,-8.678466796875
0.139,-15.685302734375,19.228759765625,-4.354248046875
0.1395,-18.247802734375,17.266845703125,0.130126953125
0.14,-19.889404296875,15.064697265625,3.773681640625
0.1405,-20.530029296875,12.782470703125,6.856689453125
0.141,-20.489990234375,9.539306640625,10.019775390625
0.1415,-20.089599609375,5.735595703125,13.463134765625
0.142,-19.248779296875,1.851806640625,16.506103515625
0.1425,-17.006591796875,-2.592529296875,18.748291015625
0.143,-14.924560546875,-5.755615234375,19.909423828125
0.1435,-12.682373046875,-8.838623046875,20.750244140625
0.144,-9.319091796875,-12.041748046875,20.550048828125
0.1445,-4.554443359375,-15.445068359375,19.428955078125
0.145,0.010009765625,-17.927490234375,17.587158203125
0.1455,4.174072265625,-19.609130859375,15.465087890625
0.146,7.136962890625,-20.289794921875,13.383056640625
0.1465,10.340087890625,-20.489990234375,10.540283203125
0.147,13.583251953125,-20.129638671875,7.096923828125
0.1475,16.546142578125,-18.968505859375,2.932861328125
0.148,18.788330078125,-16.526123046875,-1.591552734375
0.1485,20.069580078125,-14.444091796875,-4.834716796875
0.149,20.630126953125,-11.881591796875,-7.917724609375
0.1495,20.469970703125,-8.478271484375,-11.200927734375
0.15,19.789306640625,-4.514404296875,-14.484130859375
0.1505,18.548095703125,-0.590576171875,-17.246826171875
0.151,16.345947265625,3.653564453125,-19.288818359375
0.1515,14.063720703125,6.616455078125,-20.209716796875
0.152,11.421142578125,9.779541015625,-20.690185546875
0.1525,7.617431640625,13.262939453125,-20.489990234375
0.153,3.012939453125,16.426025390625,-19.088623046875
0.1535,-1.791748046875,18.548095703125,-16.766357421875
0.154,-5.275146484375,20.069580078125,-14.924560546875
0.1545,-8.398193359375,20.550048828125,-12.602294921875
0.155,-11.481201171875,20.469970703125,-9.559326171875
0.1555,-14.884521484375,19.789306640625,-5.835693359375
0.156,-17.607177734375,18.147705078125,-1.471435546875
0.1565,-19.649169921875,15.705322265625,3.012939453125
0.157,-20.489990234375,13.503173828125,6.015869140625
0.1575,-20.930419921875,10.660400390625,9.259033203125
0.158,-20.650146484375,6.896728515625,12.782470703125
0.1585,-19.769287109375,2.932861328125,15.945556640625
0.159,-18.047607421875,-1.351318359375,18.307861328125
0.1595,-15.925537109375,-5.155029296875,20.309814453125
0.16,-13.443115234375,-8.157958984375,20.870361328125
0.1605,-10.480224609375,-11.321044921875,21.030517578125
0.161,-6.156005859375,-14.884521484375,20.469970703125
0.1615,-1.311279296875,-17.807373046875,18.748291015625
0.162,3.333251953125,-19.649169921875,16.265869140625
0.1625,6.456298828125,-20.690185546875,14.384033203125
0.163,9.699462890625,-21.210693359375,11.781494140625
0.1635,13.102783203125,-20.730224609375,8.177978515625
0.164,16.345947265625,-19.769287109375,4.254150390625
0.1645,18.908447265625,-17.687255859375,-0.390380859375
0.165,20.710205078125,-15.405029296875,-4.474365234375
0.1655,21.070556640625,-12.802490234375,-7.437255859375
0.166,21.310791015625,-9.759521484375,-10.680419921875
0.1665,20.790283203125,-5.555419921875,-14.444091796875
0.167,19.709228515625,-1.431396484375,-17.406982421875
0.1675,17.306884765625,2.812744140625,-19.489013671875
0.168,15.224853515625,6.216064453125,-20.970458984375
0.1685,12.462158203125,9.499267578125,-21.330810546875
0.169,8.738525390625,12.862548828125,-21.130615234375
0.1695,4.494384765625,16.145751953125,-20.209716796875
0.17,-0.670654296875,18.908447265625,-18.087646484375
0.1705,-4.994873046875,20.510009765625,-15.725341796875
0.171,-7.837646484375,21.110595703125,-13.443115234375
0.1715,-11.240966796875,21.430908203125,-10.760498046875
0.172,-14.804443359375,20.550048828125,-6.596435546875
0.1725,-17.567138671875,19.228759765625,-2.592529296875
0.173,-19.769287109375,16.866455078125,1.931884765625
0.1735,-21.290771484375,14.584228515625,5.735595703125
0.174,-21.370849609375,11.661376953125,8.738525390625
0.1745,-21.410888671875,8.218017578125,12.221923828125
0.175,-20.610107421875,4.093994140625,15.545166015625
0.1755,-19.088623046875,-0.350341796875,18.548095703125
0.176,-16.646240234375,-4.554443359375,20.109619140625
0.1765,-14.524169921875,-7.517333984375,21.230712890625
0.177,-11.721435546875,-10.720458984375,21.671142578125
0.1775,-7.156982421875,-14.404052734375,20.990478515625
0.178,-2.952880859375,-17.126708984375,19.669189453125
0.1785,2.011962890625,-19.368896484375,17.306884765625
0.179,5.815673828125,-20.850341796875,15.224853515625
0.1795,8.818603515625,-21.010498046875,12.502197265625
0.18,11.861572265625,-21.130615234375,9.899658203125
0.1805,15.585205078125,-20.329833984375,5.455322265625
0.181,18.227783203125,-18.488037109375,1.051025390625
