wavelength,x,y,z
0.0,10.810546875,-1.4814453125,-9.8095703125
0.0005,9.44921875,1.0009765625,-10.9306640625
0.001,7.6875,2.482421875,-10.5703125
0.0015,6.5263671875,4.484375,-11.37109375
0.002,3.8037109375,7.2470703125,-11.2509765625
0.0025,1.8017578125,8.80859375,-10.7705078125
0.003,-0.720703125,10.73046875,-10.169921875
0.0035,-2.8828125,11.291015625,-8.6083984375
0.004,-4.4443359375,11.37109375,-7.1669921875
0.0045,-7.1669921875,12.171875,-5.2451171875
0.005,-9.2890625,11.8115234375,-2.8828125
0.0055,-10.330078125,11.0908203125,-1.1611328125
0.006,-12.0517578125,10.3701171875,1.2412109375
0.0065,-11.7314453125,8.2080078125,3.04296875
0.007,-12.0517578125,6.88671875,4.64453125
0.0075,-12.2119140625,4.32421875,7.3671875
0.008,-11.53125,2.322265625,8.6484375
0.0085,-10.810546875,0.0,10.1298828125
0.009,-9.44921875,-2.3623046875,11.130859375
0.0095,-7.5673828125,-4.00390625,10.7705078125
0.01,-6.0458984375,-6.1259765625,11.37109375
0.0105,-3.443359375,-8.6884765625,11.2509765625
0.011,-1.4013671875,-9.76953125,10.2900390625
0.0115,0.9208984375,-11.4912109375,9.6494140625
0.012,3.0830078125,-11.9716796875,8.0478515625
0.0125,4.96484375,-12.0517578125,6.326171875
0.013,7.6474609375,-12.6123046875,4.2041015625
0.0135,9.44921875,-12.251953125,2.2021484375
0.014,10.08984375,-11.2109375,0.48046875
0.0145,11.6513671875,-10.5302734375,-1.76171875
0.015,11.2509765625,-8.087890625,-3.68359375
0.0155,11.53125,-6.6865234375,-5.4052734375
0.016,11.6513671875,-4.1640625,-7.9677734375
0.0165,10.73046875,-2.4423828125,-8.9287109375
0.017,9.9296875,-0.080078125,-10.3701171875
0.0175,8.4482421875,2.162109375,-11.0908203125
0.018,6.40625,4.083984375,-10.7705078125
0.0185,4.8046875,6.2060546875,-11.2509765625
0.019,2.40234375,8.6484375,-11.2509765625
0.0195,0.400390625,9.369140625,-9.9296875
0.02,-1.8017578125,11.0908203125,-9.44921875
0.0205,-3.923828125,11.37109375,-7.5673828125
0.021,-6.0458984375,11.53125,-5.765625
0.0215,-8.6083984375,11.931640625,-3.68359375
0.022,-10.08984375,11.4912109375,-1.8017578125
0.0225,-10.73046875,10.08984375,0.1201171875
0.023,-12.0517578125,9.529296875,2.08203125
0.0235,-11.611328125,6.88671875,4.2041015625
0.024,-11.8115234375,5.365234375,5.92578125
0.0245,-12.0517578125,3.0029296875,8.4482421875
0.025,-10.7705078125,1.041015625,9.0888671875
0.0255,-9.9697265625,-1.12109375,10.3701171875
0.026,-8.4482421875,-3.283203125,11.05078125
0.0265,-6.2060546875,-5.365234375,10.810546875
0.027,-4.5244140625,-7.4873046875,11.1708984375
0.0275,-2.08203125,-9.689453125,10.890625
0.028,0.0,-10.2099609375,9.2890625
0.0285,1.76171875,-11.69140625,9.048828125
0.029,4.1640625,-11.8916015625,6.9267578125
0.0295,6.2861328125,-12.0517578125,5.0048828125
0.03,8.9287109375,-12.4521484375,2.8427734375
0.0305,9.9697265625,-11.53125,0.9208984375
0.031,10.5302734375,-10.169921875,-0.9609375
0.0315,11.5712890625,-9.529296875,-2.6025390625
0.032,11.2109375,-6.8466796875,-4.884765625
0.0325,11.2109375,-5.125,-6.646484375
0.033,11.4912109375,-2.962890625,-9.0087890625
0.0335,9.7294921875,-0.880859375,-9.44921875
0.034,9.048828125,1.12109375,-10.5703125
0.0345,7.3671875,3.3232421875,-10.970703125
0.035,5.125,5.4453125,-10.810546875
0.0355,3.2431640625,7.6474609375,-11.0908203125
0.036,0.9609375,9.529296875,-10.6904296875
0.0365,-1.28125,9.9697265625,-8.9287109375
0.037,-2.642578125,11.2109375,-8.7685546875
0.0375,-5.365234375,11.53125,-6.40625
0.038,-7.2470703125,11.4111328125,-4.4443359375
0.0385,-9.8896484375,11.8515625,-2.322265625
0.039,-10.650390625,10.5302734375,-0.2802734375
0.0395,-11.2109375,9.2890625,1.4013671875
0.04,-11.9716796875,8.3681640625,3.0830078125
0.0405,-11.6513671875,5.7255859375,5.4052734375
0.041,-11.53125,3.84375,7.1669921875
0.0415,-11.69140625,1.6416015625,9.4091796875
0.042,-9.7294921875,-0.640625,9.7294921875
0.0425,-9.12890625,-2.2421875,10.6904296875
0.043,-7.3271484375,-4.5244140625,11.130859375
0.0435,-5.0048828125,-6.646484375,10.8505859375
0.044,-3.04296875,-8.8486328125,11.0107421875
0.0445,-0.48046875,-10.5703125,10.1298828125
0.045,1.4013671875,-10.810546875,8.568359375
0.0455,2.7626953125,-11.771484375,8.248046875
0.046,5.7255859375,-12.2119140625,5.7255859375
0.0465,7.607421875,-11.8916015625,3.6435546875
0.047,10.08984375,-12.33203125,1.5615234375
0.0475,10.650390625,-10.6103515625,-0.640625
0.048,10.970703125,-9.609375,-1.921875
0.0485,11.53125,-8.328125,-3.8037109375
0.049,11.2509765625,-5.6455078125,-6.2060546875
0.0495,11.130859375,-3.7236328125,-8.0078125
0.05,10.970703125,-1.44140625,-9.9697265625
0.0505,8.8486328125,0.8408203125,-10.08984375
0.051,8.248046875,2.162109375,-10.7705078125
0.0515,6.2060546875,4.724609375,-11.2509765625
0.052,3.8037109375,6.7666015625,-10.8505859375
0.0525,1.841796875,9.0087890625,-11.05078125
0.053,-0.8408203125,10.4501953125,-9.76953125
0.0535,-2.40234375,10.6103515625,-8.408203125
0.054,-3.923828125,11.37109375,-7.7275390625
0.0545,-6.966796875,11.8115234375,-5.1650390625
0.055,-8.6884765625,11.37109375,-3.0830078125
0.0555,-10.970703125,11.53125,-1.0009765625
0.056,-11.4111328125,9.6494140625,1.28125
0.0565,-11.53125,8.6484375,2.3623046875
0.057,-12.1318359375,7.0869140625,4.484375
0.0575,-11.69140625,4.32421875,6.806640625
0.058,-11.5712890625,2.482421875,8.5283203125
0.0585,-11.05078125,0.0,10.490234375
0.059,-8.96875,-2.001953125,10.3701171875
0.0595,-8.408203125,-3.2431640625,10.970703125
0.06,-6.0859375,-6.0859375,11.3310546875
0.0605,-3.603515625,-8.0478515625,10.8505859375
0.061,-1.44140625,-10.169921875,10.73046875
0.0615,1.0810546875,-11.4111328125,9.44921875
0.062,2.5625,-11.4912109375,8.0478515625
0.0625,4.484375,-12.171875,6.88671875
0.063,7.4072265625,-12.4521484375,4.32421875
0.0635,8.8486328125,-12.01171875,2.5224609375
0.064,10.890625,-11.771484375,0.240234375
0.0645,11.2109375,-9.9697265625,-1.8818359375
0.065,11.1708984375,-8.728515625,-3.0830078125
0.0655,11.771484375,-6.966796875,-5.4453125
0.066,11.2109375,-4.2041015625,-7.52734375
0.0665,10.890625,-2.3623046875,-8.96875
0.067,10.169921875,0.2001953125,-10.810546875
0.0675,8.0478515625,2.001953125,-10.4501953125
0.068,7.20703125,3.443359375,-10.970703125
0.0685,4.8046875,6.2861328125,-11.3310546875
0.069,2.5224609375,8.087890625,-10.8505859375
0.0695,0.3203125,9.8896484375,-10.41015625
0.07,-2.08203125,11.05078125,-9.12890625
0.0705,-3.5634765625,11.0107421875,-7.607421875
0.071,-5.8056640625,11.771484375,-6.2060546875
0.0715,-8.408203125,11.8115234375,-3.7236328125
0.072,-9.529296875,11.2109375,-2.08203125
0.0725,-11.451171875,10.73046875,0.2001953125
0.073,-11.6513671875,8.888671875,2.2421875
0.0735,-11.5712890625,7.4873046875,3.5234375
0.074,-12.1318359375,5.5654296875,6.005859375
0.0745,-11.5712890625,3.1630859375,7.9677734375
0.075,-10.9306640625,1.2412109375,9.208984375
0.0755,-10.169921875,-1.28125,10.8505859375
0.076,-8.087890625,-3.123046875,10.5302734375
0.0765,-7.0869140625,-4.7646484375,11.0107421875
0.077,-4.5244140625,-7.5673828125,11.2509765625
0.0775,-2.4423828125,-9.048828125,10.6103515625
0.078,-0.16015625,-10.6904296875,9.9296875
0.0785,2.08203125,-11.7314453125,8.80859375
0.079,3.84375,-11.6513671875,7.0068359375
0.0795,6.24609375,-12.3720703125,5.4052734375
0.08,8.728515625,-12.412109375,3.0029296875
0.0805,9.3291015625,-11.53125,1.44140625
0.081,11.2109375,-11.0908203125,-0.80078125
0.0815,11.37109375,-9.0888671875,-2.8828125
0.082,11.3310546875,-7.4072265625,-4.4443359375
0.0825,11.6513671875,-5.28515625,-6.88671875
0.083,11.2109375,-3.1630859375,-8.568359375
0.0835,10.1298828125,-1.12109375,-9.529296875
0.084,9.369140625,1.28125,-11.05078125
0.0845,7.046875,3.3232421875,-10.6904296875
0.085,5.7255859375,5.1650390625,-11.1708984375
0.0855,3.2431640625,7.9677734375,-11.4111328125
0.086,1.28125,9.0087890625,-10.5302734375
0.0865,-1.041015625,10.5302734375,-9.6494140625
0.087,-3.123046875,11.451171875,-8.48828125
0.0875,-5.28515625,11.451171875,-6.40625
0.088,-7.5673828125,11.8115234375,-4.6044921875
0.0885,-9.9296875,11.8916015625,-2.4423828125
0.089,-10.2099609375,10.4501953125,-0.720703125
0.0895,-11.8916015625,10.0498046875,1.3212890625
0.09,-11.8115234375,7.84765625,3.4833984375
0.0905,-11.8115234375,6.1259765625,5.205078125
0.091,-12.01171875,3.8837890625,7.607421875
0.0915,-11.4111328125,1.8818359375,8.96875
0.092,-10.1298828125,-0.2802734375,9.849609375
0.0925,-9.369140625,-2.4423828125,11.130859375
0.093,-6.9267578125,-4.6845703125,10.890625
0.0935,-5.4453125,-6.5263671875,11.1708984375
0.094,-3.0029296875,-9.2490234375,11.37109375
0.0945,-0.80078125,-10.009765625,9.9296875
0.095,1.1611328125,-11.3310546875,9.2890625
0.0955,3.2431640625,-12.091796875,8.0078125
0.096,5.5654296875,-12.1318359375,5.8056640625
0.0965,7.9677734375,-12.412109375,3.68359375
0.097,10.009765625,-12.4921875,1.76171875
0.0975,10.2099609375,-10.6103515625,-0.2802734375
0.098,11.6513671875,-10.3701171875,-1.8818359375
0.0985,11.4912109375,-7.84765625,-4.1640625
0.099,11.37109375,-6.005859375,-5.92578125
0.0995,11.6513671875,-3.763671875,-8.408203125
0.1,10.6904296875,-1.681640625,-9.4892578125
0.1005,9.2890625,0.48046875,-10.2099609375
0.101,8.408203125,2.40234375,-11.1708984375
0.1015,5.8857421875,4.8447265625,-11.05078125
0.102,4.1240234375,6.7265625,-11.0908203125
0.1025,1.921875,9.3291015625,-11.4111328125
0.103,-0.6005859375,9.8896484375,-9.4892578125
0.1035,-2.1220703125,11.0908203125,-9.0888671875
0.104,-4.3642578125,11.5712890625,-7.447265625
0.1045,-6.6865234375,11.5712890625,-5.28515625
0.105,-9.048828125,11.69140625,-3.0830078125
0.1055,-10.810546875,11.4912109375,-1.201171875
0.106,-10.9306640625,9.44921875,1.0009765625
0.1065,-12.091796875,9.3291015625,2.2421875
0.107,-11.931640625,6.646484375,4.8046875
0.1075,-11.6513671875,4.724609375,6.40625
0.108,-12.01171875,2.5625,8.9287109375
0.1085,-10.5703125,0.2802734375,9.7294921875
0.109,-9.3291015625,-1.681640625,10.3701171875
0.1095,-8.4482421875,-3.5634765625,11.2509765625
0.11,-5.765625,-6.0458984375,11.0107421875
0.1105,-3.8837890625,-7.9677734375,11.0107421875
0.111,-1.6015625,-10.330078125,11.0107421875
0.1115,0.8408203125,-10.7705078125,9.0087890625
0.112,2.0419921875,-11.7314453125,8.80859375
0.1125,4.6845703125,-12.33203125,6.806640625
0.113,6.88671875,-12.251953125,4.5244140625
0.1135,9.2890625,-12.4521484375,2.3623046875
0.114,10.810546875,-11.7314453125,0.3203125
0.1145,10.8505859375,-9.76953125,-1.6015625
0.115,11.6513671875,-9.44921875,-2.72265625
0.1155,11.6513671875,-6.6865234375,-5.525390625
0.116,11.1708984375,-4.5244140625,-7.126953125
0.1165,11.53125,-2.4423828125,-9.5693359375
0.117,9.7294921875,0.080078125,-10.25
0.1175,8.5283203125,1.7216796875,-10.6103515625
0.118,7.3671875,3.6435546875,-11.291015625
0.1185,4.724609375,6.24609375,-11.2109375
0.119,2.6826171875,8.2080078125,-11.05078125
0.1195,0.3603515625,10.330078125,-10.8505859375
0.12,-2.0419921875,10.650390625,-8.80859375
0.1205,-3.0029296875,11.2509765625,-8.5283203125
0.121,-6.0458984375,11.9716796875,-6.24609375
0.1215,-7.9677734375,11.5712890625,-4.00390625
0.122,-10.25,11.7314453125,-1.8017578125
0.1225,-11.53125,10.6904296875,0.4404296875
0.123,-11.4912109375,8.888671875,2.08203125
0.1235,-12.0517578125,8.2080078125,3.3232421875
0.124,-12.1318359375,5.4052734375,6.24609375
0.1245,-11.5712890625,3.283203125,7.767578125
0.125,-11.69140625,1.0810546875,10.0498046875
0.1255,-9.7294921875,-1.44140625,10.5703125
0.126,-8.6884765625,-2.72265625,10.7705078125
0.1265,-7.2470703125,-4.884765625,11.4111328125
0.127,-4.564453125,-7.4072265625,11.1708984375
0.1275,-2.4423828125,-9.3291015625,10.9306640625
0.128,0.080078125,-11.291015625,10.3701171875
0.1285,2.08203125,-11.53125,8.5283203125
0.129,3.3232421875,-12.091796875,7.8876953125
0.1295,6.56640625,-12.8525390625,5.4453125
0.13,8.2880859375,-12.33203125,3.3232421875
0.1305,10.3701171875,-12.2119140625,1.2412109375
0.131,11.53125,-11.0107421875,-1.12109375
0.1315,11.3310546875,-9.1689453125,-2.642578125
0.132,11.8916015625,-8.16796875,-4.244140625
0.1325,11.8916015625,-5.28515625,-7.126953125
0.133,11.2509765625,-3.203125,-8.5283203125
0.1335,11.05078125,-0.80078125,-10.6904296875
0.134,9.048828125,1.6015625,-11.05078125
0.1345,7.767578125,2.8828125,-11.0107421875
0.135,6.0458984375,5.4453125,-11.7314453125
0.1355,3.36328125,7.8076171875,-11.4111328125
0.136,1.28125,9.4892578125,-10.890625
0.1365,-1.3212890625,11.3310546875,-10.2099609375
0.137,-3.3232421875,11.37109375,-8.328125
0.1375,-4.9248046875,11.8115234375,-7.20703125
0.138,-8.0478515625,12.412109375,-4.64453125
0.1385,-9.5693359375,11.8115234375,-2.642578125
0.139,-11.130859375,11.2509765625,-0.6005859375
0.1395,-12.251953125,10.0498046875,1.8017578125
0.14,-11.8916015625,8.0078125,3.4033203125
0.1405,-12.412109375,6.6865234375,5.2451171875
0.141,-12.251953125,3.84375,7.84765625
0.1415,-11.451171875,1.921875,8.96875
0.142,-10.970703125,-0.5205078125,10.890625
0.1425,-8.96875,-2.7626953125,11.130859375
0.143,-7.6474609375,-4.2041015625,11.130859375
0.1435,-5.6455078125,-6.806640625,11.6513671875
0.144,-3.1630859375,-8.9287109375,11.2109375
0.1445,-1.0009765625,-10.2900390625,10.330078125
0.145,1.361328125,-11.9716796875,9.609375
0.1455,3.443359375,-11.9716796875,7.7275390625
0.146,5.28515625,-12.412109375,6.3662109375
0.1465,8.248046875,-12.8125,3.84375
0.147,9.4091796875,-12.2119140625,2.162109375
0.1475,10.810546875,-11.4912109375,0.080078125
0.148,11.8115234375,-10.25,-2.162109375
0.1485,11.451171875,-8.0078125,-3.923828125
0.149,11.8515625,-6.56640625,-5.845703125
0.1495,11.8115234375,-3.923828125,-8.3681640625
0.15,10.7705078125,-2.08203125,-9.12890625
0.1505,10.2099609375,0.3603515625,-10.970703125
0.151,8.087890625,2.6826171875,-11.130859375
0.1515,6.5263671875,4.3642578125,-11.2109375
0.152,4.4443359375,7.0068359375,-11.6513671875
0.1525,2.2021484375,8.9287109375,-11.3310546875
0.153,-0.1201171875,9.9296875,-10.0498046875
0.1535,-2.2822265625,11.5712890625,-9.44921875
0.154,-4.5244140625,11.611328125,-7.3271484375
0.1545,-6.56640625,12.01171875,-5.685546875
0.155,-9.369140625,12.33203125,-3.283203125
0.1555,-10.25,11.37109375,-1.4814453125
0.156,-11.4912109375,10.4501953125,0.6005859375
0.1565,-12.3720703125,9.1689453125,2.6826171875
0.157,-11.931640625,6.7265625,4.724609375
0.1575,-12.2119140625,5.044921875,6.646484375
0.158,-12.2119140625,2.6826171875,9.0087890625
0.1585,-10.650390625,0.6005859375,9.4892578125
0.159,-10.2099609375,-1.5615234375,11.130859375
0.1595,-8.0078125,-3.9638671875,11.3310546875
0.16,-6.166015625,-5.845703125,11.2109375
0.1605,-4.0439453125,-8.408203125,11.53125
0.161,-1.7216796875,-10.08984375,10.8505859375
0.1615,0.560546875,-10.8505859375,9.44921875
0.162,2.322265625,-12.2119140625,8.96875
0.1625,4.8447265625,-12.2119140625,6.56640625
0.163,6.88671875,-12.3720703125,4.7646484375
0.1635,9.689453125,-12.8525390625,2.5224609375
0.164,10.2099609375,-11.37109375,0.6005859375
0.1645,11.2509765625,-10.5703125,-1.28125
0.165,11.8115234375,-9.0888671875,-3.2431640625
0.1655,11.53125,-6.7265625,-5.3251953125
0.166,11.53125,-4.724609375,-7.3671875
0.1665,11.5712890625,-2.6826171875,-9.4091796875
0.167,9.6494140625,-0.3603515625,-9.76953125
0.1675,9.2490234375,1.4814453125,-11.0908203125
0.168,6.88671875,4.00390625,-11.2509765625
0.1685,5.044921875,5.8056640625,-11.130859375
0.169,2.8427734375,8.408203125,-11.53125
0.1695,0.6005859375,9.7294921875,-10.5302734375
0.17,-1.5615234375,10.5302734375,-9.0888671875
0.1705,-3.203125,11.53125,-8.6083984375
0.171,-5.8857421875,11.69140625,-6.1259765625
0.1715,-7.8076171875,11.611328125,-4.1240234375
0.172,-10.4501953125,12.171875,-2.08203125
0.1725,-10.7705078125,10.169921875,0.16015625
0.173,-11.69140625,9.609375,1.6015625
0.1735,-12.0517578125,7.8876953125,3.68359375
0.174,-11.7314453125,5.5654296875,5.685546875
0.1745,-11.8515625,3.5234375,7.8076171875
0.175,-11.53125,1.44140625,9.529296875
0.1755,-9.609375,-0.880859375,9.849609375
0.176,-9.1689453125,-2.4423828125,10.970703125
0.1765,-6.8466796875,-5.0849609375,11.0908203125
0.177,-4.8447265625,-6.88671875,10.8505859375
0.1775,-2.6826171875,-9.369140625,11.2109375
0.178,-0.16015625,-10.490234375,9.76953125
0.1785,1.44140625,-11.0908203125,8.7685546875
0.179,3.1630859375,-11.931640625,7.9677734375
0.1795,5.92578125,-12.2119140625,5.525390625
0.18,7.9677734375,-12.0517578125,3.36328125
0.1805,10.2900390625,-12.3720703125,1.44140625
0.181,10.5302734375,-10.25,-0.880859375
0.1815,11.2509765625,-9.9296875,-1.921875
0.182,11.611328125,-7.927734375,-4.2841796875
0.1825,11.1708984375,-5.4853515625,-6.24609375
0.183,11.4111328125,-3.4833984375,-8.408203125
0.1835,10.73046875,-1.28125,-9.9296875
0.184,8.80859375,0.9609375,-10.169921875
0.1845,8.2880859375,2.322265625,-11.0107421875
0.185,5.8857421875,5.125,-11.291015625
0.1855,3.68359375,7.046875,-10.890625
0.186,1.6015625,9.44921875,-11.2509765625
0.1865,-1.1611328125,10.490234375,-9.4892578125
0.187,-2.4423828125,10.890625,-8.6484375
0.1875,-4.484375,11.6513671875,-7.4072265625
0.188,-7.20703125,11.8515625,-4.9248046875
0.1885,-9.1689453125,11.5712890625,-2.7626953125
0.189,-11.2509765625,11.5712890625,-0.720703125
0.1895,-11.4111328125,9.369140625,1.6015625
0.19,-11.8115234375,8.8486328125,2.482421875
0.1905,-12.251953125,6.646484375,5.125
0.191,-11.611328125,4.1240234375,7.046875
0.1915,-11.771484375,2.1220703125,9.0888671875
0.192,-10.73046875,-0.400390625,10.5302734375
0.1925,-8.8486328125,-2.2822265625,10.4501953125
0.193,-8.2880859375,-3.68359375,11.1708984375
0.1935,-5.60546875,-6.5263671875,11.37109375
0.194,-3.3232421875,-8.3681640625,10.8505859375
0.1945,-1.0810546875,-10.5703125,10.7705078125
0.195,1.44140625,-11.37109375,9.0087890625
0.1955,2.5625,-11.5712890625,8.16796875
0.196,5.0849609375,-12.3720703125,6.5263671875
0.1965,7.52734375,-12.33203125,4.1240234375
0.197,9.2490234375,-12.0517578125,2.162109375
0.1975,11.130859375,-11.6513671875,0.0
0.198,11.130859375,-9.609375,-2.08203125
0.1985,11.291015625,-8.80859375,-3.0830078125
0.199,11.8115234375,-6.4462890625,-5.845703125
0.1995,11.130859375,-4.0439453125,-7.5673828125
0.2,11.05078125,-2.0419921875,-9.4892578125
0.2005,9.76953125,0.48046875,-10.7705078125
0.201,8.0078125,2.001953125,-10.4501953125
0.2015,7.0869140625,3.68359375,-11.0908203125
0.202,4.484375,6.5263671875,-11.2509765625
0.2025,2.322265625,8.2880859375,-10.8505859375
0.203,0.0,10.2900390625,-10.41015625
0.2035,-2.322265625,11.0107421875,-8.8486328125
0.204,-3.5634765625,11.05078125,-7.7275390625
0.2045,-6.2861328125,11.8916015625,-5.92578125
0.205,-8.4482421875,11.69140625,-3.603515625
0.2055,-9.849609375,11.2509765625,-1.8017578125
0.206,-11.611328125,10.6904296875,0.5205078125
0.2065,-11.53125,8.6484375,2.40234375
0.207,-11.69140625,7.607421875,3.6435546875
0.2075,-12.1318359375,5.1650390625,6.4462890625
0.208,-11.53125,3.0029296875,8.0078125
0.2085,-11.05078125,0.7607421875,9.6494140625
0.209,-9.8095703125,-1.6416015625,10.810546875
0.2095,-8.0478515625,-3.0830078125,10.5302734375
0.21,-6.806640625,-5.0849609375,11.130859375
0.2105,-4.2041015625,-7.7275390625,11.1708984375
0.211,-2.08203125,-9.2490234375,10.490234375
0.2115,0.2001953125,-11.0107421875,9.9296875
0.212,2.40234375,-11.6513671875,8.408203125
0.2125,3.923828125,-11.69140625,6.9267578125
0.213,6.6865234375,-12.4521484375,5.0048828125
0.2135,8.6484375,-12.2119140625,2.8427734375
0.214,9.609375,-11.4111328125,1.201171875
0.2145,11.2509765625,-10.7705078125,-1.0810546875
0.215,11.05078125,-8.6884765625,-2.9228515625
0.2155,11.291015625,-7.3271484375,-4.5244140625
0.216,11.4912109375,-4.8447265625,-7.0869140625
0.2165,10.8505859375,-3.04296875,-8.408203125
0.217,10.169921875,-0.80078125,-9.8896484375
0.2175,8.888671875,1.5615234375,-10.810546875
0.218,6.966796875,3.203125,-10.490234375
0.2185,5.525390625,5.28515625,-11.0908203125
0.219,3.0830078125,7.8076171875,-11.0908203125
0.2195,1.12109375,8.9287109375,-10.2099609375
0.22,-1.1611328125,10.6103515625,-9.609375
0.2205,-3.2431640625,11.130859375,-8.0078125
0.221,-5.1650390625,11.2509765625,-6.3662109375
0.2215,-7.7275390625,11.8115234375,-4.3642578125
0.222,-9.4892578125,11.53125,-2.40234375
