wavelength,x,y,z
0.0,4.1290283203125,-19.934448242188,15.860473632812
0.0005,6.9317626953125,-20.575073242188,13.898559570312
0.001,10.455200195312,-20.214721679688,10.134887695312
0.0015,13.578247070312,-19.734252929688,6.7315673828125
0.002,16.901489257812,-18.613159179688,2.5274658203125
0.0025,19.223754882812,-16.811401367188,-1.6766357421875
0.003,20.344848632812,-14.889526367188,-4.6395263671875
0.0035,20.785278320312,-12.126831054688,-7.8426513671875
0.004,20.184692382812,-8.2430419921875,-11.205932617188
0.0045,19.504028320312,-4.0389404296875,-14.729370117188
0.005,18.743286132812,-0.7557373046875,-17.251831054688
0.0055,16.941528320312,3.4483642578125,-19.614135742188
0.006,14.739379882812,6.3712158203125,-20.374877929688
0.0065,11.255981445312,9.6944580078125,-20.334838867188
0.007,7.4923095703125,13.097778320312,-20.094604492188
0.0075,2.5274658203125,16.701293945312,-18.933471679688
0.008,-1.6365966796875,18.863403320312,-17.211791992188
0.0085,-5.0799560546875,20.224731445312,-15.450073242188
0.009,-8.1629638671875,20.705200195312,-13.087768554688
0.0095,-11.686401367188,19.984497070312,-9.0037841796875
0.01,-14.929565429688,19.343872070312,-5.1600341796875
0.0105,-17.772338867188,18.262817382812,-1.4364013671875
0.011,-20.094604492188,16.100708007812,3.0479736328125
0.0115,-20.775268554688,13.978637695312,5.7706298828125
0.012,-20.855346679688,10.655395507812,9.2540283203125
0.0125,-20.374877929688,6.6915283203125,12.777465820312
0.013,-19.534057617188,2.4073486328125,16.260864257812
0.0135,-18.332885742188,-1.1561279296875,18.543090820312
0.014,-16.531127929688,-4.8397216796875,20.464965820312
0.0145,-14.088745117188,-7.8426513671875,21.065551757812
0.015,-9.9246826171875,-11.286010742188,20.464965820312
0.0155,-5.9207763671875,-14.729370117188,20.104614257812
0.016,-1.2762451171875,-17.852416992188,18.823364257812
0.0165,3.3682861328125,-20.014526367188,16.581176757812
0.017,6.2110595703125,-20.855346679688,14.779418945312
0.0175,9.6143798828125,-21.135620117188,11.816528320312
0.018,13.217895507812,-20.294799804688,7.6524658203125
0.0185,16.541137695312,-19.293823242188,3.4884033203125
0.019,18.983520507812,-18.012573242188,-0.1951904296875
0.0195,21.105590820312,-15.810424804688,-4.4793701171875
0.02,21.345825195312,-13.247924804688,-7.2420654296875
0.0205,21.105590820312,-9.4442138671875,-10.885620117188
0.021,20.545043945312,-5.4803466796875,-14.288940429688
0.0215,19.624145507812,-1.3963623046875,-17.492065429688
0.022,17.782348632812,2.6475830078125,-19.694213867188
0.0225,15.860473632812,5.8907470703125,-20.975463867188
0.023,12.857543945312,9.2139892578125,-21.415893554688
0.0235,8.2930908203125,12.857543945312,-20.615112304688
0.024,3.9688720703125,16.300903320312,-19.894409179688
0.0245,-0.3553466796875,18.903442382812,-18.573120117188
0.025,-4.9598388671875,20.905395507812,-16.130737304688
0.0255,-7.5623779296875,21.145629882812,-14.088745117188
0.026,-11.245971679688,21.145629882812,-10.605346679688
0.0265,-14.689331054688,20.304809570312,-6.4012451171875
0.027,-17.852416992188,19.063598632812,-2.1170654296875
0.0275,-20.094604492188,17.301879882812,1.8868408203125
0.028,-21.656127929688,15.099731445312,5.5704345703125
0.0285,-21.736206054688,12.016723632812,8.7335205078125
0.029,-21.215698242188,7.7325439453125,12.497192382812
0.0295,-20.494995117188,3.7286376953125,15.860473632812
0.03,-19.534057617188,-0.1551513671875,18.743286132812
0.0305,-17.331909179688,-4.4393310546875,20.825317382812
0.031,-15.209838867188,-7.2020263671875,21.505981445312
0.0315,-11.846557617188,-10.605346679688,21.706176757812
0.032,-7.0819091796875,-14.328979492188,20.785278320312
0.0325,-2.5174560546875,-17.572143554688,19.584106445312
0.033,1.7667236328125,-19.894409179688,17.942504882812
0.0335,5.9307861328125,-21.616088867188,15.740356445312
0.034,8.8135986328125,-21.495971679688,13.017700195312
0.0345,12.457153320312,-21.135620117188,9.2139892578125
0.035,15.980590820312,-20.254760742188,4.9698486328125
0.0355,18.903442382812,-18.933471679688,0.8858642578125
0.036,20.985473632812,-16.731323242188,-3.3983154296875
0.0365,21.946411132812,-14.609252929688,-6.5213623046875
0.037,21.906372070312,-11.085815429688,-9.9647216796875
0.0375,21.225708007812,-6.6414794921875,-13.808471679688
0.038,20.304809570312,-2.5975341796875,-16.851440429688
0.0385,19.143676757812,1.2061767578125,-19.494018554688
0.039,16.821411132812,5.4102783203125,-21.495971679688
0.0395,14.058715820312,8.2930908203125,-21.616088867188
0.04,10.375122070312,11.856567382812,-21.616088867188
0.0405,5.4503173828125,15.740356445312,-20.815307617188
0.041,0.9659423828125,18.623168945312,-19.413940429688
0.0415,-3.4783935546875,20.625122070312,-17.331909179688
0.042,-6.9217529296875,21.946411132812,-15.410034179688
0.0425,-10.244995117188,21.706176757812,-12.046752929688
0.043,-13.848510742188,20.985473632812,-7.9227294921875
0.0435,-17.291870117188,20.064575195312,-3.7186279296875
0.044,-19.934448242188,18.503051757812,0.5255126953125
0.0445,-21.856323242188,16.060668945312,4.8096923828125
0.045,-22.296752929688,13.458129882812,7.7725830078125
0.0455,-22.136596679688,9.6544189453125,11.496215820312
0.046,-21.415893554688,4.9698486328125,15.500122070312
0.0465,-20.334838867188,1.0059814453125,18.342895507812
0.047,-18.653198242188,-2.9578857421875,20.665161132812
0.0475,-16.571166992188,-6.7215576171875,22.426879882812
0.048,-13.127807617188,-9.8446044921875,22.146606445312
0.0485,-9.1639404296875,-13.408081054688,21.786254882812
0.049,-4.1190185546875,-17.291870117188,20.865356445312
0.0495,0.6456298828125,-19.974487304688,19.063598632812
0.05,4.9698486328125,-21.656127929688,16.701293945312
0.0505,8.1329345703125,-22.456909179688,14.619262695312
0.051,11.816528320312,-22.096557617188,10.815551757812
0.0515,15.580200195312,-21.095581054688,6.2510986328125
0.052,18.703247070312,-20.054565429688,2.1671142578125
0.0525,21.225708007812,-18.092651367188,-2.2772216796875
0.053,22.747192382812,-15.770385742188,-6.1209716796875
0.0535,22.587036132812,-12.487182617188,-9.2840576171875
0.054,22.346801757812,-8.5233154296875,-12.887573242188
0.0545,21.425903320312,-3.7586669921875,-16.851440429688
0.055,20.184692382812,0.2452392578125,-19.534057617188
0.0555,17.942504882812,4.3292236328125,-21.455932617188
0.056,15.780395507812,7.8126220703125,-22.777221679688
0.0565,11.576293945312,11.255981445312,-22.176635742188
0.057,7.0518798828125,14.979614257812,-21.576049804688
0.0575,2.4874267578125,18.382934570312,-20.615112304688
0.058,-2.4373779296875,20.945434570312,-18.573120117188
0.0585,-6.3612060546875,22.266723632812,-16.170776367188
0.059,-9.5242919921875,22.426879882812,-13.448120117188
0.0595,-13.167846679688,22.066528320312,-9.6444091796875
0.06,-17.011596679688,20.785278320312,-4.6795654296875
0.0605,-19.694213867188,19.423950195312,-0.7957763671875
0.061,-21.816284179688,17.181762695312,3.6485595703125
0.0615,-22.937377929688,14.859497070312,7.0518798828125
0.062,-22.496948242188,10.935668945312,10.535278320312
0.0625,-22.056518554688,6.8516845703125,14.218872070312
0.063,-21.135620117188,2.3272705078125,17.862426757812
0.0635,-19.694213867188,-1.7967529296875,20.505004882812
0.064,-17.251831054688,-5.6405029296875,21.946411132812
0.0645,-14.889526367188,-8.8436279296875,22.867309570312
0.065,-10.685424804688,-12.447143554688,22.306762695312
0.0655,-5.5203857421875,-16.370971679688,21.265747070312
0.066,-1.2762451171875,-19.093627929688,19.984497070312
0.0665,3.6485595703125,-21.455932617188,17.782348632812
0.067,7.1719970703125,-22.496948242188,15.540161132812
0.0675,10.535278320312,-22.216674804688,12.096801757812
0.068,14.058715820312,-21.776245117188,8.3731689453125
0.0685,17.942504882812,-20.494995117188,3.3682861328125
0.069,20.464965820312,-18.853393554688,-0.7957763671875
0.0695,22.106567382812,-16.611206054688,-4.6795654296875
0.07,22.907348632812,-14.088745117188,-7.9627685546875
0.0705,22.306762695312,-9.9246826171875,-11.526245117188
0.071,21.626098632812,-5.4803466796875,-15.329956054688
0.0715,20.665161132812,-1.5965576171875,-18.292846679688
0.072,18.943481445312,2.8477783203125,-20.935424804688
0.0725,16.461059570312,6.4112548828125,-22.096557617188
0.073,13.297973632812,9.6544189453125,-22.336791992188
0.0735,9.2540283203125,13.257934570312,-22.056518554688
0.074,3.6885986328125,17.421997070312,-20.815307617188
0.0745,-0.5155029296875,19.824340820312,-19.253784179688
0.075,-4.8797607421875,21.746215820312,-17.011596679688
0.0755,-8.1629638671875,22.546997070312,-14.809448242188
0.076,-11.886596679688,21.906372070312,-10.685424804688
0.0765,-15.249877929688,21.225708007812,-6.8817138671875
0.077,-18.653198242188,20.064575195312,-2.3973388671875
0.0775,-21.175659179688,17.942504882812,2.2872314453125
0.078,-22.296752929688,15.660278320312,5.6505126953125
0.0785,-22.777221679688,12.617309570312,9.0938720703125
0.079,-22.176635742188,8.4532470703125,12.737426757812
0.0795,-21.295776367188,3.6485595703125,16.701293945312
0.08,-20.214721679688,0.0050048828125,19.263793945312
0.0805,-18.252807617188,-4.3992919921875,21.666137695312
0.081,-15.890502929688,-7.7225341796875,22.667114257812
0.0815,-11.926635742188,-11.205932617188,22.266723632812
0.082,-8.0028076171875,-14.649291992188,21.946411132812
0.0825,-2.5174560546875,-18.493041992188,20.585083007812
0.083,2.2471923828125,-20.815307617188,18.463012695312
0.0835,5.9307861328125,-22.096557617188,16.340942382812
0.084,9.3341064453125,-22.697143554688,13.778442382812
0.0845,13.177856445312,-21.896362304688,9.2940673828125
0.085,16.661254882812,-20.895385742188,4.9698486328125
0.0855,19.544067382812,-19.734252929688,1.0860595703125
0.086,22.026489257812,-17.331909179688,-3.8387451171875
0.0865,22.667114257812,-14.969604492188,-6.8016357421875
0.087,22.667114257812,-11.245971679688,-10.525268554688
0.0875,22.026489257812,-7.2821044921875,-13.928588867188
0.088,21.025512695312,-2.4774169921875,-17.772338867188
0.0885,19.504028320312,1.4063720703125,-20.094604492188
0.089,17.301879882812,5.2901611328125,-21.896362304688
0.0895,14.739379882812,8.6534423828125,-22.737182617188
0.09,10.094848632812,12.417114257812,-21.896362304688
0.0905,5.7706298828125,15.980590820312,-21.295776367188
0.091,1.1260986328125,19.183715820312,-20.014526367188
0.0915,-3.9989013671875,21.425903320312,-17.532104492188
0.092,-7.0018310546875,22.066528320312,-15.410034179688
0.0925,-10.565307617188,22.266723632812,-12.327026367188
0.093,-14.088745117188,21.465942382812,-8.1229248046875
0.0935,-17.652221679688,20.144653320312,-3.3983154296875
0.094,-20.014526367188,18.663208007812,0.4053955078125
0.0945,-22.056518554688,16.260864257812,4.8096923828125
0.095,-22.456909179688,13.658325195312,7.7325439453125
0.0955,-21.976440429688,9.4942626953125,11.496215820312
0.096,-21.335815429688,5.5704345703125,14.859497070312
0.0965,-20.414916992188,1.2462158203125,18.182739257812
0.097,-18.493041992188,-2.9979248046875,20.464965820312
0.0975,-16.370971679688,-6.2010498046875,21.586059570312
0.098,-13.608276367188,-9.4442138671875,22.226684570312
0.0985,-9.0037841796875,-12.967651367188,21.265747070312
0.099,-4.2391357421875,-16.571166992188,20.304809570312
0.0995,-0.1551513671875,-19.093627929688,18.943481445312
0.1,4.6094970703125,-21.135620117188,16.581176757812
0.1005,7.3721923828125,-21.536010742188,14.379028320312
0.101,10.975708007812,-21.335815429688,10.855590820312
0.1015,14.338989257812,-20.655151367188,7.0518798828125
0.102,17.662231445312,-19.413940429688,2.5274658203125
0.1025,19.904418945312,-17.612182617188,-1.5565185546875
0.103,21.265747070312,-15.530151367188,-4.8797607421875
0.1035,21.626098632812,-12.727416992188,-8.0828857421875
0.104,20.985473632812,-8.5633544921875,-11.606323242188
0.1045,20.224731445312,-4.5194091796875,-14.969604492188
0.105,19.504028320312,-0.9959716796875,-17.772338867188
0.1055,17.462036132812,3.3282470703125,-20.094604492188
0.106,15.179809570312,6.2510986328125,-20.695190429688
0.1065,12.016723632812,9.6143798828125,-21.015502929688
0.107,7.7725830078125,13.217895507812,-20.454956054688
0.1075,2.9278564453125,16.701293945312,-19.333862304688
0.108,-1.0760498046875,18.903442382812,-17.772338867188
0.1085,-4.8797607421875,20.545043945312,-15.890502929688
0.109,-7.8426513671875,20.905395507812,-13.488159179688
0.1095,-11.406127929688,20.344848632812,-9.6043701171875
0.11,-14.649291992188,19.744262695312,-5.8406982421875
0.1105,-17.612182617188,18.583129882812,-1.9569091796875
0.111,-19.894409179688,16.501098632812,2.4874267578125
0.1115,-20.655151367188,14.459106445312,5.2501220703125
0.112,-20.975463867188,11.336059570312,8.6534423828125
0.1125,-20.414916992188,7.1719970703125,12.216918945312
0.113,-19.614135742188,3.0479736328125,15.660278320312
0.1135,-18.653198242188,-0.3953857421875,18.062622070312
0.114,-16.811401367188,-4.3192138671875,20.224731445312
0.1145,-14.409057617188,-7.1219482421875,20.745239257812
0.115,-10.725463867188,-10.565307617188,20.505004882812
0.1155,-6.6815185546875,-14.088745117188,20.144653320312
0.116,-1.9569091796875,-17.291870117188,18.863403320312
0.1165,2.4473876953125,-19.373901367188,16.781372070312
0.117,5.5303955078125,-20.535034179688,15.139770507812
0.1175,8.8536376953125,-20.815307617188,12.337036132812
0.118,12.417114257812,-20.094604492188,8.2530517578125
0.1185,15.660278320312,-19.293823242188,4.3292236328125
0.119,18.262817382812,-18.132690429688,0.6856689453125
0.1195,20.424926757812,-15.970581054688,-3.6785888671875
0.12,20.745239257812,-13.608276367188,-6.3612060546875
0.1205,20.785278320312,-10.164916992188,-9.8846435546875
0.121,20.224731445312,-6.1209716796875,-13.408081054688
0.1215,19.343872070312,-2.1170654296875,-16.611206054688
0.122,17.822387695312,1.7266845703125,-18.733276367188
0.1225,16.020629882812,5.1300048828125,-20.454956054688
0.123,13.097778320312,8.2930908203125,-20.775268554688
0.1235,8.9337158203125,11.816528320312,-20.174682617188
0.124,4.7696533203125,15.299926757812,-19.614135742188
0.1245,0.4854736328125,18.062622070312,-18.332885742188
0.125,-3.9989013671875,19.944458007812,-16.050659179688
0.1255,-6.6014404296875,20.464965820312,-14.248901367188
0.126,-10.124877929688,20.545043945312,-11.045776367188
0.1265,-13.608276367188,19.704223632812,-6.8416748046875
0.127,-16.611206054688,18.703247070312,-2.9578857421875
0.1275,-18.893432617188,17.141723632812,0.8858642578125
0.128,-20.575073242188,15.059692382812,4.6094970703125
0.1285,-20.655151367188,12.176879882812,7.4522705078125
0.129,-20.334838867188,8.3331298828125,11.015747070312
0.1295,-19.734252929688,4.4093017578125,14.379028320312
0.13,-18.933471679688,0.7657470703125,17.301879882812
0.1305,-16.971557617188,-3.2381591796875,19.263793945312
0.131,-15.129760742188,-6.0408935546875,20.304809570312
0.1315,-12.126831054688,-9.2440185546875,20.545043945312
0.132,-7.7225341796875,-12.727416992188,19.784301757812
0.1325,-3.5584716796875,-15.890502929688,18.863403320312
0.133,0.6055908203125,-18.252807617188,17.421997070312
0.1335,4.6094970703125,-19.974487304688,15.420043945312
0.134,7.2120361328125,-20.054565429688,13.097778320312
0.1345,10.655395507812,-19.974487304688,9.7745361328125
0.135,14.138793945312,-19.213745117188,5.7305908203125
0.1355,16.941528320312,-18.172729492188,2.0069580078125
0.136,19.023559570312,-16.370971679688,-1.9168701171875
0.1365,20.184692382812,-14.529174804688,-4.9197998046875
0.137,20.224731445312,-11.406127929688,-8.0428466796875
0.1375,19.784301757812,-7.4022216796875,-11.646362304688
0.138,19.063598632812,-3.7186279296875,-14.689331054688
0.1385,18.262817382812,-0.1951904296875,-17.331909179688
0.139,16.260864257812,3.7686767578125,-19.253784179688
0.1395,14.018676757812,6.4112548828125,-19.774291992188
0.14,10.775512695312,9.7344970703125,-19.934448242188
0.1405,6.2510986328125,13.498168945312,-19.253784179688
0.141,2.2471923828125,16.300903320312,-18.252807617188
0.1415,-1.8768310546875,18.422973632812,-16.571166992188
0.142,-5.2000732421875,19.864379882812,-14.929565429688
0.1425,-8.1229248046875,19.824340820312,-12.126831054688
0.143,-11.486206054688,19.423950195312,-8.6033935546875
0.1435,-14.849487304688,18.743286132812,-4.6795654296875
0.144,-17.411987304688,17.542114257812,-0.9959716796875
0.1445,-19.373901367188,15.460083007812,2.9678955078125
0.145,-20.014526367188,13.378051757812,5.7305908203125
0.1455,-20.094604492188,10.054809570312,9.0538330078125
0.146,-19.574096679688,5.7706298828125,12.857543945312
0.1465,-18.853393554688,2.2872314453125,15.660278320312
0.147,-17.612182617188,-1.3162841796875,18.062622070312
0.1475,-15.850463867188,-4.8397216796875,19.864379882812
0.148,-13.087768554688,-7.6424560546875,19.904418945312
0.1485,-9.6444091796875,-10.885620117188,19.864379882812
0.149,-4.9998779296875,-14.729370117188,19.183715820312
0.1495,-0.8358154296875,-17.331909179688,17.822387695312
0.15,3.1680908203125,-19.093627929688,15.900512695312
0.1505,6.1309814453125,-20.134643554688,14.218872070312
0.151,9.4141845703125,-19.974487304688,10.975708007812
0.1515,12.897583007812,-19.293823242188,6.9718017578125
0.152,15.900512695312,-18.573120117188,3.3682861328125
0.1525,18.342895507812,-17.131713867188,-0.5955810546875
0.153,19.984497070312,-15.129760742188,-4.1190185546875
0.1535,20.144653320312,-12.447143554688,-7.0018310546875
0.154,19.984497070312,-8.9637451171875,-10.285034179688
0.1545,19.383911132812,-4.5994873046875,-14.088745117188
0.155,18.543090820312,-1.1961669921875,-16.611206054688
0.1555,16.781372070312,2.5274658203125,-18.573120117188
0.156,15.059692382812,5.7305908203125,-20.054565429688
0.1565,11.576293945312,8.8135986328125,-19.814331054688
0.157,7.6925048828125,12.176879882812,-19.413940429688
0.1575,3.5284423828125,15.540161132812,-18.733276367188
0.158,-0.7957763671875,17.982543945312,-17.171752929688
0.1585,-4.3992919921875,19.423950195312,-15.209838867188
0.159,-7.1219482421875,19.864379882812,-13.087768554688
0.1595,-10.405151367188,19.704223632812,-9.8446044921875
0.16,-13.968627929688,18.743286132812,-5.4803466796875
0.1605,-16.491088867188,17.782348632812,-2.2371826171875
0.161,-18.573120117188,15.980590820312,1.7266845703125
0.1615,-19.894409179688,14.098754882812,4.8096923828125
0.162,-19.694213867188,10.935668945312,7.8126220703125
0.1625,-19.453979492188,7.3721923828125,11.135864257812
0.163,-18.853393554688,3.4083251953125,14.579223632812
0.1635,-17.892456054688,-0.1551513671875,17.101684570312
0.164,-16.010620117188,-3.5584716796875,18.623168945312
0.1645,-14.168823242188,-6.2811279296875,19.704223632812
0.165,-10.765502929688,-9.4041748046875,19.463989257812
0.1655,-6.4012451171875,-12.967651367188,18.783325195312
0.166,-2.6776123046875,-15.730346679688,17.942504882812
0.1665,1.5665283203125,-17.972534179688,16.260864257812
0.167,4.7696533203125,-19.253784179688,14.579223632812
0.1675,7.6124267578125,-19.213745117188,11.856567382812
0.168,10.735473632812,-19.093627929688,8.8135986328125
0.1685,14.338989257812,-18.292846679688,4.5694580078125
0.169,16.661254882812,-17.171752929688,1.2061767578125
0.1695,18.463012695312,-15.450073242188,-2.3572998046875
0.17,19.423950195312,-13.448120117188,-5.2000732421875
0.1705,19.183715820312,-10.204956054688,-8.2430419921875
0.171,18.823364257812,-6.3612060546875,-11.766479492188
0.1715,18.302856445312,-2.9578857421875,-14.649291992188
0.172,17.181762695312,0.6856689453125,-17.171752929688
0.1725,15.339965820312,3.9288330078125,-18.573120117188
0.173,12.897583007812,6.7315673828125,-19.013549804688
0.1735,9.6544189453125,9.9346923828125,-19.093627929688
0.174,4.8497314453125,13.858520507812,-18.332885742188
0.1745,1.3262939453125,16.220825195312,-17.331909179688
0.175,-2.5975341796875,18.182739257812,-15.650268554688
0.1755,-5.5203857421875,19.303833007812,-14.088745117188
0.176,-8.6434326171875,18.983520507812,-10.845581054688
0.1765,-11.806518554688,18.623168945312,-7.5223388671875
0.177,-15.089721679688,17.942504882812,-3.7186279296875
0.1775,-17.452026367188,16.461059570312,0.1651611328125
0.178,-18.893432617188,14.739379882812,3.3282470703125
