wavelength,x,y,z
0.0,-5.3251953125,-0.3203125,5.125
0.0005,-5.2451171875,0.80078125,4.32421875
0.001,-5.125,1.9619140625,3.1630859375
0.0015,-4.884765625,3.0029296875,2.1220703125
0.002,-4.8046875,3.8837890625,1.4013671875
0.0025,-4.244140625,4.404296875,0.5205078125
0.003,-3.4033203125,4.7646484375,-0.6806640625
0.0035,-2.5224609375,5.1650390625,-1.921875
0.004,-1.3212890625,5.1650390625,-3.0830078125
0.0045,-0.640625,5.4853515625,-4.083984375
0.005,0.2802734375,5.4052734375,-4.884765625
0.0055,1.3212890625,4.884765625,-5.4853515625
0.006,2.5625,3.84375,-5.845703125
0.0065,3.6435546875,2.6025390625,-5.92578125
0.007,4.404296875,1.5615234375,-5.9658203125
0.0075,4.8447265625,0.880859375,-5.9658203125
0.008,4.9248046875,0.1201171875,-5.60546875
0.0085,4.8447265625,-1.041015625,-4.8447265625
0.009,4.8447265625,-2.08203125,-3.9638671875
0.0095,4.564453125,-3.283203125,-2.7626953125
0.01,4.484375,-4.1640625,-1.921875
0.0105,4.2041015625,-4.8447265625,-1.1611328125
0.011,3.6435546875,-5.28515625,-0.240234375
0.0115,2.642578125,-5.6455078125,1.0810546875
0.012,1.521484375,-5.845703125,2.3623046875
0.0125,0.560546875,-5.9658203125,3.443359375
0.013,-0.240234375,-6.24609375,4.404296875
0.0135,-1.1611328125,-5.8857421875,5.0849609375
0.014,-2.322265625,-5.0849609375,5.60546875
0.0145,-3.4833984375,-4.083984375,5.92578125
0.015,-4.484375,-2.7626953125,5.8857421875
0.0155,-5.044921875,-1.921875,5.8857421875
0.016,-5.4052734375,-1.1611328125,5.765625
0.0165,-5.4453125,-0.400390625,5.28515625
0.017,-5.28515625,0.7607421875,4.32421875
0.0175,-5.2451171875,1.921875,3.3232421875
0.018,-4.9248046875,3.0830078125,2.162109375
0.0185,-4.8447265625,3.9638671875,1.4013671875
0.019,-4.3642578125,4.484375,0.560546875
0.0195,-3.5634765625,4.8447265625,-0.6005859375
0.02,-2.5625,5.205078125,-1.8818359375
0.0205,-1.3212890625,5.2451171875,-3.1630859375
0.021,-0.6005859375,5.4853515625,-4.1240234375
0.0215,0.2802734375,5.5654296875,-5.0048828125
0.022,1.3212890625,5.044921875,-5.60546875
0.0225,2.6025390625,3.923828125,-6.005859375
0.023,3.7236328125,2.8427734375,-6.2060546875
0.0235,4.5244140625,1.5615234375,-6.1259765625
0.024,5.0849609375,0.80078125,-6.1259765625
0.0245,5.1650390625,0.0,-5.765625
0.025,5.0849609375,-1.0810546875,-5.044921875
0.0255,4.96484375,-2.2021484375,-4.1240234375
0.026,4.8046875,-3.4033203125,-2.8427734375
0.0265,4.5244140625,-4.404296875,-1.8017578125
0.027,4.3642578125,-5.1650390625,-1.041015625
0.0275,3.68359375,-5.525390625,0.0
0.028,2.642578125,-5.8056640625,1.201171875
0.0285,1.5615234375,-6.0859375,2.5224609375
0.029,0.3603515625,-6.0859375,3.68359375
0.0295,-0.4404296875,-6.2861328125,4.6044921875
0.03,-1.3212890625,-6.1259765625,5.4052734375
0.0305,-2.4423828125,-5.3251953125,5.8857421875
0.031,-3.7236328125,-4.1640625,6.24609375
0.0315,-4.8046875,-2.7626953125,6.24609375
0.032,-5.4052734375,-1.7216796875,6.0859375
0.0325,-5.765625,-1.0009765625,6.005859375
0.033,-5.7255859375,-0.16015625,5.4052734375
0.0335,-5.6455078125,1.0810546875,4.404296875
0.034,-5.4453125,2.2822265625,3.3232421875
0.0345,-5.0849609375,3.4833984375,2.0419921875
0.035,-4.8447265625,4.32421875,1.12109375
0.0355,-4.4443359375,4.9248046875,0.2802734375
0.036,-3.603515625,5.2451171875,-0.8408203125
0.0365,-2.40234375,5.4453125,-2.2021484375
0.037,-1.1611328125,5.60546875,-3.5634765625
0.0375,-0.16015625,5.60546875,-4.564453125
0.038,0.6005859375,5.7255859375,-5.4453125
0.0385,1.6416015625,5.1650390625,-6.0458984375
0.039,2.962890625,4.083984375,-6.4462890625
0.0395,4.1240234375,2.8427734375,-6.6865234375
0.04,5.0849609375,1.4013671875,-6.486328125
0.0405,5.4853515625,0.4404296875,-6.3662109375
0.041,5.685546875,-0.48046875,-6.0458984375
0.0415,5.525390625,-1.44140625,-5.28515625
0.042,5.28515625,-2.642578125,-4.00390625
0.0425,5.0849609375,-3.923828125,-2.7626953125
0.043,4.724609375,-4.96484375,-1.521484375
0.0435,4.4443359375,-5.7255859375,-0.6806640625
0.044,3.7236328125,-6.0458984375,0.3203125
0.0445,2.642578125,-6.2861328125,1.5615234375
0.045,1.28125,-6.486328125,3.04296875
0.0455,0.0,-6.40625,4.32421875
0.046,-0.9208984375,-6.4462890625,5.1650390625
0.0465,-1.681640625,-6.326171875,5.9658203125
0.047,-2.8828125,-5.4853515625,6.4462890625
0.0475,-4.2841796875,-4.1240234375,6.7265625
0.048,-5.365234375,-2.7626953125,6.7666015625
0.0485,-6.005859375,-1.44140625,6.4462890625
0.049,-6.2861328125,-0.640625,6.24609375
0.0495,-6.2861328125,0.3203125,5.60546875
0.05,-6.0458984375,1.521484375,4.6044921875
0.0505,-5.765625,2.802734375,3.3232421875
0.051,-5.4052734375,4.0439453125,1.921875
0.0515,-4.9248046875,4.884765625,0.7607421875
0.052,-4.5244140625,5.4853515625,0.0
0.0525,-3.603515625,5.685546875,-1.1611328125
0.053,-2.2822265625,5.845703125,-2.6025390625
0.0535,-1.0009765625,6.005859375,-4.00390625
0.054,0.3603515625,5.765625,-5.0849609375
0.0545,1.0009765625,5.845703125,-5.8857421875
0.055,1.921875,5.4052734375,-6.486328125
0.0555,3.1630859375,4.3642578125,-6.88671875
0.056,4.4443359375,2.9228515625,-7.0068359375
0.0565,5.4453125,1.4013671875,-6.88671875
0.057,5.92578125,0.240234375,-6.56640625
0.0575,6.0859375,-0.640625,-6.326171875
0.058,5.8857421875,-1.521484375,-5.4853515625
0.0585,5.60546875,-2.7626953125,-4.2041015625
0.059,5.3251953125,-4.00390625,-2.962890625
0.0595,4.8447265625,-5.1650390625,-1.5615234375
0.06,4.484375,-5.92578125,-0.6005859375
0.0605,3.8837890625,-6.3662109375,0.3603515625
0.061,2.9228515625,-6.5263671875,1.44140625
0.0615,1.4814453125,-6.646484375,2.9228515625
0.062,0.080078125,-6.6064453125,4.32421875
0.0625,-1.041015625,-6.486328125,5.28515625
0.063,-1.681640625,-6.486328125,6.0458984375
0.0635,-2.7626953125,-5.8056640625,6.56640625
0.064,-4.0439453125,-4.5244140625,6.88671875
0.0645,-5.1650390625,-3.2431640625,7.0068359375
0.065,-6.0458984375,-1.76171875,6.646484375
0.0655,-6.4462890625,-0.80078125,6.40625
0.066,-6.4462890625,0.16015625,6.005859375
0.0665,-6.2861328125,1.12109375,5.125
0.067,-5.92578125,2.4423828125,3.7236328125
0.0675,-5.60546875,3.7236328125,2.40234375
0.068,-5.0849609375,4.724609375,1.0810546875
0.0685,-4.7646484375,5.4052734375,0.2802734375
0.069,-4.00390625,5.685546875,-0.80078125
0.0695,-2.8828125,5.845703125,-2.001953125
0.07,-1.521484375,6.0458984375,-3.443359375
0.0705,0.0,5.845703125,-4.7646484375
0.071,0.80078125,5.845703125,-5.6455078125
0.0715,1.5615234375,5.7255859375,-6.326171875
0.072,2.6826171875,4.884765625,-6.7666015625
0.0725,4.00390625,3.443359375,-7.0068359375
0.073,5.0849609375,2.08203125,-7.046875
0.0735,5.7255859375,0.640625,-6.6865234375
0.074,6.0458984375,-0.2001953125,-6.4462890625
0.0745,5.9658203125,-1.041015625,-5.845703125
0.075,5.7255859375,-2.1220703125,-4.884765625
0.0755,5.4453125,-3.4033203125,-3.5634765625
0.076,5.044921875,-4.6845703125,-2.1220703125
0.0765,4.6044921875,-5.60546875,-1.0009765625
0.077,4.2841796875,-6.24609375,-0.2001953125
0.0775,3.4033203125,-6.4462890625,0.880859375
0.078,2.0419921875,-6.56640625,2.2822265625
0.0785,0.7607421875,-6.7265625,3.7236328125
0.079,-0.6806640625,-6.486328125,4.884765625
0.0795,-1.3212890625,-6.6064453125,5.7255859375
0.08,-2.2421875,-6.166015625,6.3662109375
0.0805,-3.443359375,-5.28515625,6.7666015625
0.081,-4.7646484375,-3.84375,6.966796875
0.0815,-5.8056640625,-2.3623046875,6.806640625
0.082,-6.326171875,-1.12109375,6.5263671875
0.0825,-6.486328125,-0.3203125,6.2861328125
0.083,-6.40625,0.7607421875,5.525390625
0.0835,-6.0859375,2.001953125,4.2841796875
0.084,-5.8056640625,3.2431640625,3.04296875
0.0845,-5.3251953125,4.484375,1.521484375
0.085,-4.96484375,5.2451171875,0.5205078125
0.0855,-4.3642578125,5.7255859375,-0.48046875
0.086,-3.36328125,5.92578125,-1.5615234375
0.0865,-1.921875,6.0458984375,-3.0830078125
0.087,-0.5205078125,6.0859375,-4.5244140625
0.0875,0.640625,5.8857421875,-5.4853515625
0.088,1.3212890625,5.8857421875,-6.2861328125
0.0885,2.40234375,5.0849609375,-6.7666015625
0.089,3.7236328125,3.84375,-7.0869140625
0.0895,4.8447265625,2.5224609375,-7.20703125
0.09,5.7255859375,0.9609375,-6.806640625
0.0905,6.0859375,0.0,-6.56640625
0.091,6.1259765625,-0.9208984375,-6.1259765625
0.0915,5.8857421875,-1.921875,-5.205078125
0.092,5.5654296875,-3.203125,-3.84375
0.0925,5.2451171875,-4.484375,-2.482421875
0.093,4.724609375,-5.4453125,-1.1611328125
0.0935,4.3642578125,-6.1259765625,-0.3203125
0.094,3.5634765625,-6.40625,0.6806640625
0.0945,2.482421875,-6.56640625,1.921875
0.095,1.0810546875,-6.6865234375,3.36328125
0.0955,-0.48046875,-6.486328125,4.64453125
0.096,-1.28125,-6.4462890625,5.4853515625
0.0965,-1.9619140625,-6.40625,6.2060546875
0.097,-3.0830078125,-5.5654296875,6.646484375
0.0975,-4.404296875,-4.1640625,6.7666015625
0.098,-5.4052734375,-2.8427734375,6.8466796875
0.0985,-6.0859375,-1.44140625,6.486328125
0.099,-6.3662109375,-0.640625,6.326171875
0.0995,-6.2861328125,0.3203125,5.7255859375
0.1,-6.0859375,1.3212890625,4.8046875
0.1005,-5.765625,2.5224609375,3.5634765625
0.101,-5.4052734375,3.8037109375,2.1220703125
0.1015,-4.9248046875,4.6845703125,0.9609375
0.102,-4.6044921875,5.3251953125,0.16015625
0.1025,-3.8037109375,5.5654296875,-0.8408203125
0.103,-2.6025390625,5.7255859375,-2.1220703125
0.1035,-1.361328125,5.8857421875,-3.5234375
0.104,0.0400390625,5.685546875,-4.64453125
0.1045,0.720703125,5.765625,-5.525390625
0.105,1.5615234375,5.4853515625,-6.166015625
0.1055,2.6025390625,4.6044921875,-6.6064453125
0.106,3.8837890625,3.36328125,-6.7666015625
0.1065,4.96484375,1.921875,-6.7265625
0.107,5.5654296875,0.7607421875,-6.4462890625
0.1075,5.8056640625,0.0,-6.2861328125
0.108,5.685546875,-0.9609375,-5.6455078125
0.1085,5.4453125,-2.0419921875,-4.64453125
0.109,5.2451171875,-3.2431640625,-3.5234375
0.1095,4.8046875,-4.4443359375,-2.08203125
0.11,4.5244140625,-5.28515625,-1.1611328125
0.1105,4.1240234375,-5.8056640625,-0.3603515625
0.111,3.3232421875,-6.1259765625,0.720703125
0.1115,2.08203125,-6.2861328125,2.0419921875
0.112,0.7607421875,-6.3662109375,3.443359375
0.1125,-0.400390625,-6.326171875,4.484375
0.113,-1.041015625,-6.486328125,5.28515625
0.1135,-2.001953125,-6.005859375,5.8857421875
0.114,-3.203125,-4.9248046875,6.2861328125
0.1145,-4.32421875,-3.763671875,6.486328125
0.115,-5.205078125,-2.322265625,6.326171875
0.1155,-5.765625,-1.4013671875,6.166015625
0.116,-5.92578125,-0.6806640625,5.92578125
0.1165,-5.8056640625,0.2802734375,5.28515625
0.117,-5.6455078125,1.4013671875,4.2041015625
0.1175,-5.4052734375,2.6025390625,3.04296875
0.118,-5.0048828125,3.68359375,1.76171875
0.1185,-4.8447265625,4.484375,1.0009765625
0.119,-4.244140625,4.9248046875,0.16015625
0.1195,-3.4033203125,5.205078125,-1.0009765625
0.12,-2.2822265625,5.4853515625,-2.2822265625
0.1205,-1.0009765625,5.4052734375,-3.5634765625
0.121,-0.16015625,5.4853515625,-4.5244140625
0.1215,0.6005859375,5.5654296875,-5.365234375
0.122,1.5615234375,5.0849609375,-5.845703125
0.1225,2.8427734375,3.9638671875,-6.166015625
0.123,3.8837890625,2.8427734375,-6.3662109375
0.1235,4.724609375,1.521484375,-6.166015625
0.124,5.1650390625,0.7607421875,-6.166015625
0.1245,5.2451171875,0.0,-5.8056640625
0.125,5.205078125,-1.0009765625,-5.1650390625
0.1255,5.044921875,-2.0419921875,-4.2041015625
0.126,4.8046875,-3.283203125,-2.962890625
0.1265,4.484375,-4.244140625,-1.921875
0.127,4.404296875,-5.044921875,-1.1611328125
0.1275,3.8037109375,-5.4453125,-0.3203125
0.128,2.8427734375,-5.765625,0.9208984375
0.1285,1.841796875,-6.0859375,2.162109375
0.129,0.6005859375,-6.0458984375,3.36328125
0.1295,-0.240234375,-6.326171875,4.32421875
0.13,-1.0009765625,-6.166015625,5.0849609375
0.1305,-2.0419921875,-5.525390625,5.6455078125
0.131,-3.203125,-4.5244140625,6.005859375
0.1315,-4.32421875,-3.2431640625,6.0859375
0.132,-5.0048828125,-2.1220703125,5.9658203125
0.1325,-5.4453125,-1.44140625,6.005859375
0.133,-5.4853515625,-0.6806640625,5.5654296875
0.1335,-5.4453125,0.400390625,4.8046875
0.134,-5.3251953125,1.521484375,3.8837890625
0.1345,-5.044921875,2.6826171875,2.642578125
0.135,-4.8447265625,3.603515625,1.7216796875
0.1355,-4.6044921875,4.2841796875,0.9208984375
0.136,-4.00390625,4.724609375,0.0400390625
0.1365,-3.04296875,5.0048828125,-1.28125
0.137,-1.8818359375,5.205078125,-2.5625
0.1375,-0.9208984375,5.2451171875,-3.603515625
0.138,-0.240234375,5.5654296875,-4.5244140625
0.1385,0.7607421875,5.28515625,-5.205078125
0.139,1.841796875,4.484375,-5.6455078125
0.1395,3.0029296875,3.5234375,-6.0458984375
0.14,3.9638671875,2.2021484375,-5.9658203125
0.1405,4.6044921875,1.3212890625,-6.005859375
0.141,4.9248046875,0.640625,-5.92578125
0.1415,4.96484375,-0.240234375,-5.4453125
0.142,4.8447265625,-1.2412109375,-4.64453125
0.1425,4.8046875,-2.40234375,-3.6435546875
0.143,4.484375,-3.443359375,-2.5625
0.1435,4.484375,-4.3642578125,-1.76171875
0.144,4.083984375,-4.884765625,-1.0009765625
0.1445,3.4033203125,-5.3251953125,0.080078125
0.145,2.5224609375,-5.7255859375,1.2412109375
0.1455,1.28125,-5.8056640625,2.482421875
0.146,0.48046875,-6.005859375,3.5234375
0.1465,-0.3203125,-6.2060546875,4.4443359375
0.147,-1.28125,-5.8056640625,5.0849609375
0.1475,-2.4423828125,-4.9248046875,5.525390625
0.148,-3.5634765625,-3.8837890625,5.845703125
0.1485,-4.4443359375,-2.72265625,5.765625
0.149,-5.0048828125,-1.9619140625,5.8857421875
0.1495,-5.2451171875,-1.28125,5.7255859375
0.15,-5.28515625,-0.400390625,5.1650390625
0.1505,-5.28515625,0.720703125,4.404296875
0.151,-5.125,1.921875,3.2431640625
0.1515,-4.884765625,2.962890625,2.2421875
0.152,-4.8447265625,3.8037109375,1.4814453125
0.1525,-4.3642578125,4.2841796875,0.6005859375
0.153,-3.5234375,4.6845703125,-0.6005859375
0.1535,-2.6025390625,5.0849609375,-1.8017578125
0.154,-1.44140625,5.1650390625,-2.962890625
0.1545,-0.720703125,5.4453125,-3.9638671875
0.155,0.2001953125,5.4052734375,-4.8046875
0.1555,1.201171875,4.9248046875,-5.4052734375
0.156,2.4423828125,3.9638671875,-5.8056640625
0.1565,3.5234375,2.72265625,-5.92578125
0.157,4.32421875,1.681640625,-5.92578125
0.1575,4.8046875,0.9609375,-6.005859375
0.158,4.9248046875,0.240234375,-5.6455078125
0.1585,4.884765625,-0.8408203125,-4.9248046875
0.159,4.884765625,-1.9619140625,-4.083984375
0.1595,4.6044921875,-3.1630859375,-2.8828125
0.16,4.484375,-4.083984375,-1.9619140625
0.1605,4.2841796875,-4.8447265625,-1.2412109375
0.161,3.68359375,-5.28515625,-0.3203125
0.1615,2.72265625,-5.6455078125,0.9609375
0.162,1.6015625,-5.845703125,2.2822265625
0.1625,0.6005859375,-5.92578125,3.36328125
0.163,-0.16015625,-6.24609375,4.32421875
0.1635,-1.12109375,-5.92578125,5.044921875
0.164,-2.2822265625,-5.125,5.5654296875
0.1645,-3.4033203125,-4.1240234375,5.92578125
0.165,-4.4443359375,-2.8427734375,5.8857421875
0.1655,-5.044921875,-1.9619140625,5.8857421875
0.166,-5.365234375,-1.2412109375,5.765625
0.1665,-5.4052734375,-0.400390625,5.28515625
0.167,-5.28515625,0.80078125,4.404296875
0.1675,-5.205078125,1.9619140625,3.36328125
0.168,-4.9248046875,3.0830078125,2.162109375
0.1685,-4.8447265625,3.8837890625,1.4013671875
0.169,-4.32421875,4.4443359375,0.5205078125
0.1695,-3.5634765625,4.724609375,-0.640625
0.17,-2.5625,5.1650390625,-1.841796875
0.1705,-1.3212890625,5.2451171875,-3.123046875
0.171,-0.5205078125,5.4052734375,-4.083984375
0.1715,0.2802734375,5.525390625,-4.96484375
0.172,1.28125,5.044921875,-5.5654296875
0.1725,2.5625,3.9638671875,-5.92578125
0.173,3.6435546875,2.8427734375,-6.2060546875
0.1735,4.484375,1.5615234375,-6.0458984375
0.174,4.96484375,0.8408203125,-6.0859375
0.1745,5.0849609375,0.0400390625,-5.765625
0.175,5.0849609375,-0.9609375,-5.0849609375
0.1755,4.96484375,-2.0419921875,-4.1240234375
0.176,4.7646484375,-3.283203125,-2.8828125
0.1765,4.484375,-4.2841796875,-1.8818359375
0.177,4.32421875,-5.0849609375,-1.12109375
0.1775,3.68359375,-5.4453125,-0.2802734375
0.178,2.6826171875,-5.7255859375,1.0009765625
0.1785,1.7216796875,-6.005859375,2.322265625
0.179,0.48046875,-5.9658203125,3.5234375
0.1795,-0.3203125,-6.24609375,4.484375
0.18,-1.1611328125,-6.0859375,5.205078125
0.1805,-2.2421875,-5.4052734375,5.7255859375
0.181,-3.5234375,-4.244140625,6.0859375
0.1815,-4.564453125,-2.962890625,6.1259765625
0.182,-5.205078125,-1.8818359375,6.0458984375
0.1825,-5.6455078125,-1.1611328125,6.005859375
0.183,-5.6455078125,-0.3603515625,5.4453125
0.1835,-5.4853515625,0.8408203125,4.5244140625
0.184,-5.4052734375,1.9619140625,3.5634765625
0.1845,-5.044921875,3.1630859375,2.2421875
0.185,-4.8447265625,4.00390625,1.3212890625
0.1855,-4.5244140625,4.6845703125,0.560546875
0.186,-3.763671875,5.0048828125,-0.5205078125
0.1865,-2.6025390625,5.28515625,-1.8818359375
0.187,-1.44140625,5.4453125,-3.203125
0.1875,-0.4404296875,5.4853515625,-4.244140625
0.188,0.3203125,5.685546875,-5.1650390625
0.1885,1.361328125,5.205078125,-5.765625
0.189,2.5625,4.2041015625,-6.2060546875
0.1895,3.763671875,3.0830078125,-6.4462890625
0.19,4.7646484375,1.6416015625,-6.3662109375
0.1905,5.2451171875,0.7607421875,-6.2861328125
0.191,5.4453125,-0.16015625,-6.005859375
0.1915,5.4052734375,-1.041015625,-5.3251953125
0.192,5.205078125,-2.2822265625,-4.1640625
0.1925,5.044921875,-3.603515625,-3.0029296875
0.193,4.6845703125,-4.64453125,-1.76171875
0.1935,4.5244140625,-5.4453125,-1.0009765625
0.194,3.84375,-5.8056640625,0.0400390625
0.1945,2.8427734375,-6.1259765625,1.2412109375
0.195,1.5615234375,-6.3662109375,2.6826171875
0.1955,0.2802734375,-6.326171875,4.00390625
0.196,-0.640625,-6.40625,4.9248046875
0.1965,-1.44140625,-6.3662109375,5.7255859375
0.197,-2.642578125,-5.525390625,6.2861328125
0.1975,-4.00390625,-4.2041015625,6.56640625
0.198,-5.125,-2.9228515625,6.6865234375
0.1985,-5.8056640625,-1.6015625,6.40625
0.199,-6.166015625,-0.80078125,6.24609375
0.1995,-6.1259765625,0.240234375,5.6455078125
0.2,-5.9658203125,1.3212890625,4.64453125
0.2005,-5.7255859375,2.5625,3.36328125
0.201,-5.4052734375,3.84375,2.001953125
0.2015,-4.8447265625,4.724609375,0.720703125
0.202,-4.564453125,5.4052734375,0.0400390625
0.2025,-3.6435546875,5.60546875,-1.041015625
0.203,-2.2822265625,5.765625,-2.5224609375
0.2035,-1.041015625,5.9658203125,-3.923828125
0.204,0.2802734375,5.7255859375,-5.0048828125
0.2045,0.9609375,5.8056640625,-5.765625
0.205,1.8818359375,5.365234375,-6.40625
0.2055,3.123046875,4.32421875,-6.806640625
0.206,4.404296875,2.8828125,-6.966796875
0.2065,5.365234375,1.4013671875,-6.806640625
0.207,5.8857421875,0.2802734375,-6.486328125
0.2075,6.005859375,-0.6005859375,-6.24609375
0.208,5.8056640625,-1.4814453125,-5.4453125
0.2085,5.4853515625,-2.7626953125,-4.1640625
0.209,5.28515625,-4.00390625,-2.9228515625
0.2095,4.724609375,-5.28515625,-1.6416015625
0.21,4.404296875,-5.845703125,-0.6005859375
0.2105,3.8837890625,-6.2861328125,0.3203125
0.211,2.8828125,-6.486328125,1.4013671875
0.2115,1.44140625,-6.56640625,2.9228515625
0.212,0.1201171875,-6.6064453125,4.2841796875
0.2125,-1.0009765625,-6.4462890625,5.205078125
0.213,-1.6416015625,-6.486328125,6.005859375
0.2135,-2.72265625,-5.8056640625,6.5263671875
0.214,-4.00390625,-4.564453125,6.8466796875
0.2145,-5.1650390625,-3.2431640625,6.966796875
0.215,-6.005859375,-1.76171875,6.6865234375
0.2155,-6.40625,-0.80078125,6.40625
0.216,-6.4462890625,0.1201171875,6.005859375
0.2165,-6.2861328125,1.12109375,5.125
0.217,-5.92578125,2.40234375,3.763671875
0.2175,-5.7255859375,3.5634765625,2.40234375
0.218,-5.125,4.724609375,1.12109375
0.2185,-4.7646484375,5.4052734375,0.2802734375
0.219,-4.00390625,5.685546875,-0.7607421875
0.2195,-2.8828125,5.8857421875,-2.001953125
0.22,-1.521484375,6.0458984375,-3.5234375
0.2205,0.0,5.8857421875,-4.7646484375
0.221,0.80078125,5.845703125,-5.6455078125
0.2215,1.5615234375,5.7255859375,-6.3662109375
0.222,2.6826171875,4.8447265625,-6.7666015625
0.2225,4.0439453125,3.443359375,-7.0068359375
0.223,5.0849609375,2.08203125,-7.0869140625
0.2235,5.765625,0.6806640625,-6.6865234375
0.224,6.0859375,-0.240234375,-6.486328125
0.2245,6.0859375,-1.12109375,-5.92578125
0.225,5.7255859375,-2.2421875,-4.8447265625
0.2255,5.4052734375,-3.5634765625,-3.4833984375
0.226,5.0849609375,-4.7646484375,-2.08203125
0.2265,4.6044921875,-5.6455078125,-0.9208984375
0.227,4.2841796875,-6.2861328125,0.0
0.2275,3.3232421875,-6.4462890625,0.9609375
