wavelength,x,y,z
0.0,19.709228515625,-16.045654296875,-2.912841796875
0.0005,20.229736328125,-14.043701171875,-5.595458984375
0.001,20.349853515625,-10.920654296875,-8.718505859375
0.0015,19.709228515625,-6.716552734375,-12.161865234375
0.002,19.148681640625,-3.113037109375,-15.204833984375
0.0025,17.867431640625,0.930908203125,-17.887451171875
0.003,16.145751953125,4.574462890625,-19.889404296875
0.0035,13.423095703125,7.497314453125,-20.209716796875
0.004,9.819580078125,10.700439453125,-19.969482421875
0.0045,5.775634765625,14.103759765625,-19.489013671875
0.005,1.251220703125,17.306884765625,-18.407958984375
0.0055,-3.153076171875,19.468994140625,-16.486083984375
0.006,-5.995849609375,20.429931640625,-14.764404296875
0.0065,-9.239013671875,20.630126953125,-11.921630859375
0.007,-12.682373046875,19.869384765625,-7.837646484375
0.0075,-15.645263671875,19.188720703125,-4.314208984375
0.008,-18.568115234375,17.627197265625,0.130126953125
0.0085,-20.489990234375,15.465087890625,4.093994140625
0.009,-20.650146484375,12.822509765625,6.896728515625
0.0095,-20.570068359375,9.218994140625,10.219970703125
0.01,-19.889404296875,5.175048828125,13.703369140625
0.0105,-19.208740234375,1.331298828125,16.906494140625
0.011,-17.487060546875,-2.712646484375,19.228759765625
0.0115,-15.685302734375,-5.955810546875,20.710205078125
0.012,-12.642333984375,-9.038818359375,20.870361328125
0.0125,-8.318115234375,-12.522216796875,20.269775390625
0.013,-4.434326171875,-15.645263671875,19.709228515625
0.0135,0.530517578125,-18.728271484375,18.107666015625
0.014,4.614501953125,-20.570068359375,16.145751953125
0.0145,7.377197265625,-20.970458984375,13.903564453125
0.015,10.700439453125,-20.970458984375,10.740478515625
0.0155,14.384033203125,-20.089599609375,6.256103515625
0.016,17.306884765625,-19.088623046875,2.452392578125
0.0165,19.829345703125,-17.286865234375,-1.911865234375
0.017,21.310791015625,-15.124755859375,-5.435302734375
0.0175,21.110595703125,-12.001708984375,-8.438232421875
0.018,20.710205078125,-7.997802734375,-11.881591796875
0.0185,20.029541015625,-4.154052734375,-15.044677734375
0.019,18.948486328125,0.210205078125,-18.207763671875
0.0195,16.906494140625,4.134033203125,-20.209716796875
0.02,14.704345703125,7.096923828125,-21.010498046875
0.0205,11.341064453125,10.340087890625,-21.090576171875
0.021,6.416259765625,14.143798828125,-20.169677734375
0.0215,2.572509765625,16.946533203125,-19.368896484375
0.022,-2.272216796875,19.709228515625,-17.487060546875
0.0225,-5.955810546875,21.190673828125,-15.605224609375
0.023,-8.838623046875,21.070556640625,-12.722412109375
0.0235,-12.041748046875,20.790283203125,-9.439208984375
0.024,-15.645263671875,19.909423828125,-5.074951171875
0.0245,-18.488037109375,18.427978515625,-0.790771484375
0.025,-20.369873046875,16.345947265625,3.213134765625
0.0255,-21.370849609375,14.023681640625,6.376220703125
0.026,-20.970458984375,10.580322265625,9.459228515625
0.0265,-20.329833984375,6.176025390625,13.182861328125
0.027,-19.689208984375,2.732666015625,15.945556640625
0.0275,-18.367919921875,-1.591552734375,18.908447265625
0.028,-16.285888671875,-5.355224609375,20.590087890625
0.0285,-13.523193359375,-8.077880859375,20.750244140625
0.029,-10.239990234375,-11.200927734375,20.750244140625
0.0295,-5.315185546875,-14.924560546875,19.789306640625
0.03,-1.031005859375,-17.767333984375,18.508056640625
0.0305,3.093017578125,-19.769287109375,16.706298828125
0.031,6.416259765625,-21.010498046875,14.864501953125
0.0315,9.459228515625,-20.650146484375,11.661376953125
0.032,12.742431640625,-20.129638671875,7.937744140625
0.0325,15.905517578125,-19.529052734375,4.214111328125
0.033,18.788330078125,-17.807373046875,-0.390380859375
0.0335,20.349853515625,-15.725341796875,-3.993896484375
0.034,20.710205078125,-13.122802734375,-6.796630859375
0.0345,20.469970703125,-9.799560546875,-9.879638671875
0.035,19.789306640625,-5.315185546875,-13.603271484375
0.0355,19.068603515625,-1.871826171875,-16.365966796875
0.036,17.587158203125,2.172119140625,-18.848388671875
0.0365,15.625244140625,5.615478515625,-20.409912109375
0.037,12.302001953125,8.538330078125,-20.129638671875
0.0375,8.778564453125,11.781494140625,-20.009521484375
0.038,4.374267578125,15.344970703125,-19.368896484375
0.0385,-0.430419921875,18.227783203125,-17.807373046875
0.039,-4.033935546875,19.909423828125,-16.045654296875
0.0395,-7.076904296875,20.790283203125,-14.083740234375
0.04,-10.280029296875,20.469970703125,-10.760498046875
0.0405,-13.883544921875,19.669189453125,-6.476318359375
0.041,-16.766357421875,18.908447265625,-2.952880859375
0.0415,-19.368896484375,16.986572265625,1.531494140625
0.042,-20.650146484375,14.944580078125,4.854736328125
0.0425,-20.610107421875,11.821533203125,7.857666015625
0.043,-20.449951171875,8.338134765625,11.140869140625
0.0435,-19.809326171875,4.093994140625,14.744384765625
0.044,-18.728271484375,0.050048828125,17.707275390625
0.0445,-16.966552734375,-3.673583984375,19.709228515625
0.045,-15.044677734375,-6.876708984375,21.030517578125
0.0455,-11.281005859375,-9.999755859375,20.550048828125
0.046,-7.036865234375,-13.523193359375,20.029541015625
0.0465,-2.952880859375,-16.726318359375,19.388916015625
0.047,2.052001953125,-19.489013671875,17.427001953125
0.0475,5.415283203125,-20.770263671875,15.545166015625
0.048,8.538330078125,-21.090576171875,12.902587890625
0.0485,11.781494140625,-20.850341796875,9.579345703125
0.049,15.545166015625,-19.889404296875,4.934814453125
0.0495,18.427978515625,-18.608154296875,0.810791015625
0.05,20.510009765625,-16.606201171875,-3.193115234375
0.0505,21.430908203125,-14.323974609375,-6.356201171875
0.051,20.870361328125,-10.600341796875,-9.479248046875
0.0515,20.469970703125,-6.756591796875,-12.882568359375
0.052,19.909423828125,-2.872802734375,-16.165771484375
0.0525,18.387939453125,1.651611328125,-19.128662109375
0.053,16.225830078125,5.094970703125,-20.530029296875
0.0535,13.743408203125,8.298095703125,-21.290771484375
0.054,9.899658203125,11.541259765625,-20.890380859375
0.0545,4.974853515625,15.344970703125,-19.929443359375
0.055,0.850830078125,18.227783203125,-18.968505859375
0.0555,-3.833740234375,20.590087890625,-16.966552734375
0.056,-6.996826171875,21.470947265625,-14.924560546875
0.0565,-10.280029296875,21.190673828125,-11.521240234375
0.057,-13.443115234375,20.790283203125,-8.077880859375
0.0575,-16.926513671875,19.789306640625,-3.673583984375
0.058,-19.809326171875,17.787353515625,1.131103515625
0.0585,-21.130615234375,15.705322265625,4.614501953125
0.059,-21.771240234375,13.102783203125,7.777587890625
0.0595,-21.130615234375,9.058837890625,11.020751953125
0.06,-20.369873046875,4.814697265625,14.544189453125
0.0605,-19.649169921875,1.091064453125,17.587158203125
0.061,-17.967529296875,-3.353271484375,20.269775390625
0.0615,-15.565185546875,-6.556396484375,21.190673828125
0.062,-12.482177734375,-9.679443359375,21.350830078125
0.0625,-8.678466796875,-12.962646484375,20.990478515625
0.063,-3.673583984375,-16.526123046875,19.829345703125
0.0635,1.051025390625,-19.208740234375,18.107666015625
0.064,4.814697265625,-20.930419921875,16.305908203125
0.0645,7.897705078125,-21.651123046875,14.063720703125
0.065,11.301025390625,-21.010498046875,10.099853515625
0.0655,14.544189453125,-20.329833984375,6.376220703125
0.066,17.667236328125,-19.288818359375,2.332275390625
0.0665,20.309814453125,-17.126708984375,-2.432373046875
0.067,21.110595703125,-14.924560546875,-5.395263671875
0.0675,21.310791015625,-11.961669921875,-8.558349609375
0.068,20.750244140625,-8.157958984375,-11.721435546875
0.0685,19.989501953125,-3.873779296875,-15.204833984375
0.069,18.868408203125,0.170166015625,-18.007568359375
0.0695,17.146728515625,4.053955078125,-20.249755859375
0.07,14.704345703125,7.177001953125,-21.130615234375
0.0705,10.860595703125,10.420166015625,-20.690185546875
0.071,7.056884765625,13.783447265625,-20.409912109375
0.0715,2.452392578125,17.226806640625,-19.448974609375
0.072,-2.472412109375,19.749267578125,-17.406982421875
0.0725,-5.515380859375,20.830322265625,-15.685302734375
0.073,-8.798583984375,21.390869140625,-13.122802734375
0.0735,-12.121826171875,20.670166015625,-9.279052734375
0.074,-15.405029296875,19.829345703125,-5.155029296875
0.0745,-18.407958984375,18.588134765625,-1.031005859375
0.075,-20.690185546875,16.385986328125,3.453369140625
0.0755,-21.210693359375,13.983642578125,6.336181640625
0.076,-21.050537109375,10.420166015625,9.619384765625
0.0765,-20.530029296875,6.576416015625,12.982666015625
0.077,-19.889404296875,2.492431640625,16.385986328125
0.0775,-18.287841796875,-1.831787109375,19.068603515625
0.078,-16.446044921875,-5.275146484375,20.710205078125
0.0785,-13.923583984375,-8.398193359375,21.510986328125
0.079,-9.679443359375,-11.761474609375,20.790283203125
0.0795,-5.555419921875,-15.044677734375,20.149658203125
0.08,-0.990966796875,-18.287841796875,19.028564453125
0.0805,3.813720703125,-20.650146484375,16.906494140625
0.081,6.576416015625,-21.210693359375,14.864501953125
0.0815,9.939697265625,-21.410888671875,11.821533203125
0.082,13.423095703125,-20.650146484375,7.817626953125
0.0825,16.706298828125,-19.689208984375,3.653564453125
0.083,19.509033203125,-17.967529296875,-0.790771484375
0.0835,21.270751953125,-15.885498046875,-4.674560546875
0.084,21.551025390625,-13.122802734375,-7.637451171875
0.0845,20.990478515625,-9.118896484375,-11.040771484375
0.085,20.349853515625,-5.275146484375,-14.203857421875
0.0855,19.589111328125,-1.231201171875,-17.487060546875
0.086,17.667236328125,3.213134765625,-20.009521484375
0.0865,15.425048828125,6.256103515625,-20.850341796875
0.087,12.542236328125,9.499267578125,-21.330810546875
0.0875,8.017822265625,13.062744140625,-20.570068359375
0.088,3.693603515625,16.225830078125,-19.689208984375
0.0885,-0.910888671875,19.068603515625,-18.247802734375
0.089,-5.114990234375,21.070556640625,-16.285888671875
0.0895,-7.877685546875,21.270751953125,-13.883544921875
0.09,-11.240966796875,21.030517578125,-10.400146484375
0.0905,-14.604248046875,20.309814453125,-6.436279296875
0.091,-17.647216796875,19.148681640625,-2.272216796875
0.0915,-20.049560546875,16.986572265625,2.252197265625
0.092,-21.170654296875,14.784423828125,5.495361328125
0.0925,-21.290771484375,11.741455078125,8.618408203125
0.093,-20.650146484375,7.537353515625,12.141845703125
0.0935,-19.889404296875,3.813720703125,15.104736328125
0.094,-18.928466796875,-0.310302734375,18.187744140625
0.0945,-17.006591796875,-4.394287109375,20.429931640625
0.095,-14.524169921875,-7.156982421875,20.830322265625
0.0955,-11.361083984375,-10.280029296875,20.870361328125
0.096,-6.956787109375,-13.843505859375,20.229736328125
0.0965,-2.512451171875,-16.966552734375,19.148681640625
0.097,1.971923828125,-19.368896484375,17.306884765625
0.0975,5.455322265625,-20.850341796875,15.545166015625
0.098,8.378173828125,-20.970458984375,12.862548828125
0.0985,11.701416015625,-20.369873046875,9.138916015625
0.099,14.904541015625,-19.729248046875,5.455322265625
0.0995,17.987548828125,-18.407958984375,1.131103515625
0.1,20.149658203125,-16.285888671875,-3.153076171875
0.1005,20.670166015625,-14.043701171875,-5.875732421875
0.101,20.710205078125,-10.880615234375,-8.998779296875
0.1015,20.069580078125,-6.596435546875,-12.602294921875
0.102,19.388916015625,-3.032958984375,-15.525146484375
0.1025,18.067626953125,1.051025390625,-18.207763671875
0.103,16.265869140625,4.774658203125,-20.169677734375
0.1035,13.463134765625,7.657470703125,-20.369873046875
0.104,9.899658203125,10.780517578125,-20.129638671875
0.1045,5.735595703125,14.223876953125,-19.649169921875
0.105,1.211181640625,17.427001953125,-18.488037109375
0.1055,-3.193115234375,19.509033203125,-16.606201171875
0.106,-6.115966796875,20.510009765625,-14.844482421875
0.1065,-9.279052734375,20.710205078125,-11.921630859375
0.107,-12.762451171875,19.909423828125,-7.837646484375
0.1075,-15.685302734375,19.268798828125,-4.314208984375
0.108,-18.608154296875,17.667236328125,0.170166015625
0.1085,-20.489990234375,15.585205078125,4.093994140625
0.109,-20.650146484375,12.862548828125,6.856689453125
0.1095,-20.489990234375,9.459228515625,10.139892578125
0.11,-19.889404296875,5.255126953125,13.703369140625
0.1105,-19.208740234375,1.411376953125,16.826416015625
0.111,-17.567138671875,-2.592529296875,19.148681640625
0.1115,-15.725341796875,-5.835693359375,20.630126953125
0.112,-12.642333984375,-8.918701171875,20.750244140625
0.1125,-8.398193359375,-12.402099609375,20.149658203125
0.113,-4.514404296875,-15.525146484375,19.549072265625
0.1135,0.450439453125,-18.608154296875,17.987548828125
0.114,4.454345703125,-20.369873046875,16.065673828125
0.1145,7.177001953125,-20.810302734375,13.863525390625
0.115,10.580322265625,-20.850341796875,10.740478515625
0.1155,14.303955078125,-20.009521484375,6.256103515625
0.116,17.186767578125,-19.048583984375,2.532470703125
0.1165,19.709228515625,-17.246826171875,-1.791748046875
0.117,21.190673828125,-15.084716796875,-5.315185546875
0.1175,20.990478515625,-11.921630859375,-8.278076171875
0.118,20.630126953125,-8.037841796875,-11.681396484375
0.1185,20.029541015625,-4.234130859375,-14.924560546875
0.119,18.948486328125,0.050048828125,-18.127685546875
0.1195,16.946533203125,3.973876953125,-20.049560546875
0.12,14.744384765625,6.976806640625,-20.930419921875
0.1205,11.381103515625,10.179931640625,-20.930419921875
0.121,6.456298828125,14.023681640625,-20.049560546875
0.1215,2.652587890625,16.826416015625,-19.368896484375
0.122,-2.192138671875,19.589111328125,-17.527099609375
0.1225,-5.875732421875,21.150634765625,-15.645263671875
0.123,-8.798583984375,21.070556640625,-12.762451171875
0.1235,-12.001708984375,20.830322265625,-9.519287109375
0.124,-15.645263671875,19.989501953125,-5.114990234375
0.1245,-18.568115234375,18.508056640625,-0.790771484375
0.125,-20.530029296875,16.385986328125,3.253173828125
0.1255,-21.490966796875,14.103759765625,6.456298828125
0.126,-21.130615234375,10.540283203125,9.619384765625
0.1265,-20.530029296875,6.216064453125,13.383056640625
0.127,-19.929443359375,2.692626953125,16.265869140625
0.1275,-18.568115234375,-1.711669921875,19.228759765625
0.128,-16.365966796875,-5.435302734375,20.870361328125
0.1285,-13.603271484375,-8.318115234375,21.110595703125
0.129,-10.280029296875,-11.521240234375,21.070556640625
0.1295,-5.195068359375,-15.405029296875,20.029541015625
0.13,-0.870849609375,-18.127685546875,18.788330078125
0.1305,3.333251953125,-20.209716796875,16.946533203125
0.131,6.696533203125,-21.450927734375,15.024658203125
0.1315,9.859619140625,-21.010498046875,11.621337890625
0.132,13.182861328125,-20.489990234375,7.857666015625
0.1325,16.466064453125,-19.809326171875,4.013916015625
0.133,19.388916015625,-17.967529296875,-0.790771484375
0.1335,20.910400390625,-15.845458984375,-4.394287109375
0.134,21.310791015625,-13.162841796875,-7.357177734375
0.1345,20.990478515625,-9.639404296875,-10.520263671875
0.135,20.229736328125,-5.074951171875,-14.283935546875
0.1355,19.428955078125,-1.431396484375,-17.126708984375
0.136,17.867431640625,2.692626953125,-19.649169921875
0.1365,15.745361328125,6.135986328125,-21.130615234375
0.137,12.221923828125,9.178955078125,-20.810302734375
0.1375,8.658447265625,12.462158203125,-20.650146484375
0.138,4.013916015625,16.145751953125,-19.889404296875
0.1385,-0.910888671875,18.988525390625,-18.087646484375
0.139,-4.514404296875,20.550048828125,-16.285888671875
0.1395,-7.717529296875,21.390869140625,-14.163818359375
0.14,-10.920654296875,20.950439453125,-10.600341796875
0.1405,-14.564208984375,20.069580078125,-6.236083984375
0.141,-17.447021484375,19.228759765625,-2.592529296875
0.1415,-20.049560546875,17.226806640625,2.011962890625
0.142,-21.170654296875,14.944580078125,5.375244140625
0.1425,-21.090576171875,11.701416015625,8.458251953125
0.143,-20.850341796875,8.177978515625,11.701416015625
0.1435,-20.129638671875,3.773681640625,15.385009765625
0.144,-18.928466796875,-0.430419921875,18.267822265625
0.1445,-17.166748046875,-4.114013671875,20.189697265625
0.145,-15.044677734375,-7.397216796875,21.470947265625
0.1455,-11.160888671875,-10.560302734375,20.870361328125
0.146,-6.916748046875,-14.003662109375,20.349853515625
0.1465,-2.752685546875,-17.166748046875,19.589111328125
0.147,2.252197265625,-19.889404296875,17.587158203125
0.1475,5.575439453125,-21.010498046875,15.665283203125
0.148,8.738525390625,-21.290771484375,12.942626953125
0.1485,11.981689453125,-20.970458984375,9.539306640625
0.149,15.665283203125,-19.929443359375,4.854736328125
0.1495,18.548095703125,-18.568115234375,0.770751953125
0.15,20.630126953125,-16.606201171875,-3.273193359375
0.1505,21.470947265625,-14.283935546875,-6.436279296875
0.151,20.950439453125,-10.560302734375,-9.559326171875
0.1515,20.550048828125,-6.756591796875,-12.962646484375
0.152,19.989501953125,-2.872802734375,-16.285888671875
0.1525,18.387939453125,1.651611328125,-19.208740234375
0.153,16.265869140625,5.054931640625,-20.489990234375
0.1535,13.783447265625,8.258056640625,-21.330810546875
0.154,9.859619140625,11.541259765625,-20.850341796875
0.1545,5.014892578125,15.224853515625,-19.889404296875
0.155,0.930908203125,18.187744140625,-18.928466796875
0.1555,-3.713623046875,20.510009765625,-17.006591796875
0.156,-6.796630859375,21.350830078125,-14.924560546875
0.1565,-10.119873046875,21.110595703125,-11.561279296875
0.157,-13.363037109375,20.710205078125,-8.037841796875
0.1575,-16.766357421875,19.709228515625,-3.713623046875
0.158,-19.609130859375,17.787353515625,1.051025390625
0.1585,-21.010498046875,15.665283203125,4.494384765625
0.159,-21.611083984375,13.062744140625,7.617431640625
0.1595,-20.930419921875,9.058837890625,10.860595703125
0.16,-20.209716796875,4.934814453125,14.303955078125
0.1605,-19.569091796875,1.131103515625,17.346923828125
0.161,-17.927490234375,-3.193115234375,20.069580078125
0.1615,-15.565185546875,-6.436279296875,21.030517578125
0.162,-12.522216796875,-9.559326171875,21.230712890625
0.1625,-8.638427734375,-12.882568359375,20.870361328125
0.163,-3.753662109375,-16.446044921875,19.789306640625
0.1635,0.930908203125,-19.168701171875,18.107666015625
0.164,4.694580078125,-20.850341796875,16.345947265625
0.1645,7.817626953125,-21.531005859375,14.063720703125
0.165,11.220947265625,-20.890380859375,10.179931640625
0.1655,14.464111328125,-20.329833984375,6.416259765625
0.166,17.667236328125,-19.288818359375,2.332275390625
0.1665,20.309814453125,-17.166748046875,-2.432373046875
0.167,21.110595703125,-14.964599609375,-5.435302734375
0.1675,21.390869140625,-11.961669921875,-8.598388671875
0.168,20.790283203125,-8.037841796875,-11.881591796875
0.1685,19.989501953125,-3.913818359375,-15.244873046875
0.169,18.908447265625,0.170166015625,-18.167724609375
0.1695,17.146728515625,4.093994140625,-20.449951171875
0.17,14.664306640625,7.257080078125,-21.130615234375
0.1705,10.860595703125,10.500244140625,-20.770263671875
0.171,7.016845703125,13.903564453125,-20.449951171875
0.1715,2.372314453125,17.306884765625,-19.448974609375
0.172,-2.592529296875,19.829345703125,-17.326904296875
0.1725,-5.635498046875,20.950439453125,-15.605224609375
0.173,-8.918701171875,21.430908203125,-13.002685546875
0.1735,-12.241943359375,20.670166015625,-9.078857421875
0.174,-15.525146484375,19.829345703125,-5.034912109375
0.1745,-18.488037109375,18.548095703125,-0.910888671875
0.175,-20.690185546875,16.345947265625,3.573486328125
0.1755,-21.170654296875,13.903564453125,6.416259765625
0.176,-21.010498046875,10.380126953125,9.659423828125
0.1765,-20.449951171875,6.416259765625,13.062744140625
0.177,-19.769287109375,2.372314453125,16.345947265625
0.1775,-18.207763671875,-1.911865234375,18.988525390625
0.178,-16.365966796875,-5.235107421875,20.630126953125
0.1785,-13.803466796875,-8.358154296875,21.310791015625
0.179,-9.639404296875,-11.641357421875,20.590087890625
0.1795,-5.555419921875,-14.884521484375,19.989501953125
0.18,-0.990966796875,-18.087646484375,18.868408203125
0.1805,3.693603515625,-20.329833984375,16.706298828125
0.181,6.416259765625,-20.890380859375,14.744384765625
