wavelength,x,y,z
0.0,-19.529052734375,12.822509765625,5.815673828125
0.0005,-19.889404296875,10.099853515625,8.898681640625
0.001,-19.529052734375,5.895751953125,12.742431640625
0.0015,-18.728271484375,2.412353515625,15.465087890625
0.002,-17.086669921875,-1.431396484375,17.627197265625
0.0025,-15.124755859375,-4.994873046875,19.348876953125
0.003,-12.442138671875,-7.877685546875,19.509033203125
0.0035,-9.519287109375,-10.920654296875,19.789306640625
0.004,-5.195068359375,-14.444091796875,19.108642578125
0.0045,-0.630615234375,-17.126708984375,17.427001953125
0.005,3.213134765625,-18.648193359375,15.385009765625
0.0055,6.176025390625,-19.489013671875,13.423095703125
0.006,9.178955078125,-19.689208984375,10.940673828125
0.0065,12.662353515625,-19.208740234375,7.096923828125
0.007,15.344970703125,-18.407958984375,3.813720703125
0.0075,17.747314453125,-16.526123046875,-0.470458984375
0.008,19.228759765625,-14.444091796875,-3.993896484375
0.0085,19.348876953125,-11.841552734375,-6.756591796875
0.009,19.709228515625,-9.118896484375,-9.879638671875
0.0095,19.148681640625,-4.994873046875,-13.523193359375
0.01,18.067626953125,-1.191162109375,-16.245849609375
0.0105,16.145751953125,2.492431640625,-17.887451171875
0.011,14.183837890625,5.735595703125,-19.208740234375
0.0115,11.381103515625,8.698486328125,-19.489013671875
0.012,7.617431640625,12.181884765625,-19.248779296875
0.0125,3.893798828125,15.064697265625,-18.608154296875
0.013,-0.870849609375,17.587158203125,-16.646240234375
0.0135,-4.354248046875,18.908447265625,-14.724365234375
0.014,-7.116943359375,19.228759765625,-12.442138671875
0.0145,-10.039794921875,19.669189453125,-10.199951171875
0.015,-13.763427734375,18.828369140625,-5.835693359375
0.0155,-16.205810546875,17.627197265625,-2.232177734375
0.016,-18.127685546875,15.665283203125,1.571533203125
0.0165,-19.368896484375,13.583251953125,4.854736328125
0.017,-19.408935546875,10.700439453125,7.737548828125
0.0175,-19.529052734375,7.377197265625,11.220947265625
0.018,-18.928466796875,3.733642578125,14.343994140625
0.0185,-17.607177734375,-0.390380859375,17.146728515625
0.019,-15.445068359375,-3.913818359375,18.548095703125
0.0195,-13.363037109375,-6.756591796875,19.348876953125
0.02,-10.840576171875,-9.759521484375,19.869384765625
0.0205,-6.115966796875,-13.603271484375,19.148681640625
0.021,-2.312255859375,-16.085693359375,18.027587890625
0.0215,1.931884765625,-18.127685546875,16.065673828125
0.022,5.295166015625,-19.368896484375,14.143798828125
0.0225,8.258056640625,-19.368896484375,11.461181640625
0.023,11.180908203125,-19.569091796875,8.898681640625
0.0235,14.664306640625,-18.808349609375,4.814697265625
0.024,17.266845703125,-17.046630859375,0.610595703125
0.0245,18.708251953125,-15.124755859375,-2.872802734375
0.025,19.509033203125,-12.962646484375,-5.875732421875
0.0255,19.709228515625,-10.159912109375,-8.838623046875
0.026,19.348876953125,-5.955810546875,-12.682373046875
0.0265,18.708251953125,-2.672607421875,-15.324951171875
0.027,17.026611328125,1.451416015625,-17.767333984375
0.0275,14.864501953125,5.014892578125,-19.208740234375
0.028,12.141845703125,7.897705078125,-19.408935546875
0.0285,9.579345703125,10.980712890625,-20.009521484375
0.029,4.654541015625,14.784423828125,-19.088623046875
0.0295,0.330322265625,17.306884765625,-17.447021484375
0.03,-3.353271484375,18.868408203125,-15.565185546875
0.0305,-6.676513671875,19.909423828125,-13.603271484375
0.031,-9.799560546875,19.869384765625,-10.600341796875
0.0315,-13.122802734375,19.509033203125,-7.116943359375
0.032,-16.085693359375,18.708251953125,-3.473388671875
0.0325,-18.568115234375,16.626220703125,1.131103515625
0.033,-19.769287109375,14.384033203125,4.454345703125
0.0335,-20.209716796875,11.701416015625,7.537353515625
0.034,-20.449951171875,8.898681640625,10.620361328125
0.0345,-19.809326171875,4.254150390625,14.664306640625
0.035,-18.568115234375,0.530517578125,17.266845703125
0.0355,-16.686279296875,-3.353271484375,19.148681640625
0.036,-14.524169921875,-6.796630859375,20.469970703125
0.0365,-11.160888671875,-9.959716796875,20.389892578125
0.037,-7.757568359375,-13.322998046875,20.429931640625
0.0375,-3.193115234375,-16.606201171875,19.348876953125
0.038,1.891845703125,-19.008544921875,16.946533203125
0.0385,5.175048828125,-20.009521484375,14.944580078125
0.039,8.378173828125,-20.650146484375,12.582275390625
0.0395,11.501220703125,-20.610107421875,9.619384765625
0.04,15.184814453125,-19.609130859375,5.135009765625
0.0405,17.787353515625,-18.327880859375,1.331298828125
0.041,19.829345703125,-16.085693359375,-2.952880859375
0.0415,20.590087890625,-13.763427734375,-6.115966796875
0.042,20.590087890625,-10.520263671875,-9.279052734375
0.0425,20.550048828125,-7.317138671875,-12.322021484375
0.043,19.789306640625,-3.072998046875,-15.925537109375
0.0435,17.947509765625,1.251220703125,-18.407958984375
0.044,15.705322265625,4.694580078125,-19.689208984375
0.0445,13.383056640625,7.977783203125,-20.690185546875
0.045,9.939697265625,11.180908203125,-20.489990234375
0.0455,5.495361328125,14.744384765625,-19.809326171875
0.046,1.451416015625,17.467041015625,-18.648193359375
0.0465,-3.313232421875,19.509033203125,-16.245849609375
0.047,-6.436279296875,20.229736328125,-14.043701171875
0.0475,-9.599365234375,20.429931640625,-11.281005859375
0.048,-12.482177734375,20.349853515625,-8.518310546875
0.0485,-16.005615234375,19.188720703125,-4.033935546875
0.049,-18.447998046875,17.306884765625,0.250244140625
0.0495,-19.929443359375,15.144775390625,3.813720703125
0.05,-20.650146484375,12.742431640625,6.976806640625
0.0505,-20.409912109375,9.419189453125,10.099853515625
0.051,-20.129638671875,5.615478515625,13.663330078125
0.0515,-19.328857421875,1.851806640625,16.666259765625
0.052,-17.326904296875,-2.552490234375,19.028564453125
0.0525,-14.924560546875,-5.795654296875,19.949462890625
0.053,-12.442138671875,-8.958740234375,20.630126953125
0.0535,-9.239013671875,-12.081787109375,20.630126953125
0.054,-4.234130859375,-15.685302734375,19.468994140625
0.0545,0.130126953125,-18.127685546875,17.787353515625
0.055,4.134033203125,-19.809326171875,15.705322265625
0.0555,7.217041015625,-20.449951171875,13.423095703125
0.056,10.540283203125,-20.409912109375,10.260009765625
0.0565,13.623291015625,-20.129638671875,7.056884765625
0.057,16.786376953125,-18.968505859375,2.852783203125
0.0575,19.108642578125,-16.806396484375,-1.751708984375
0.058,20.189697265625,-14.524169921875,-4.834716796875
0.0585,20.710205078125,-11.921630859375,-7.997802734375
0.059,20.590087890625,-8.598388671875,-11.240966796875
0.0595,19.869384765625,-4.314208984375,-14.844482421875
0.06,18.788330078125,-0.550537109375,-17.487060546875
0.0605,16.706298828125,3.693603515625,-19.609130859375
0.061,14.143798828125,6.896728515625,-20.369873046875
0.0615,11.100830078125,10.179931640625,-20.650146484375
0.062,7.537353515625,13.583251953125,-20.650146484375
0.0625,2.732666015625,16.946533203125,-19.368896484375
0.063,-2.072021484375,19.188720703125,-17.046630859375
0.0635,-5.475341796875,20.429931640625,-15.084716796875
0.064,-8.718505859375,20.910400390625,-12.682373046875
0.0645,-12.001708984375,20.670166015625,-9.399169921875
0.065,-15.364990234375,19.909423828125,-5.435302734375
0.0655,-18.207763671875,18.508056640625,-1.271240234375
0.066,-20.369873046875,16.105712890625,3.333251953125
0.0665,-21.010498046875,13.583251953125,6.416259765625
0.067,-21.330810546875,10.540283203125,9.819580078125
0.0675,-21.130615234375,6.896728515625,13.302978515625
0.068,-20.209716796875,2.612548828125,16.706298828125
0.0685,-18.447998046875,-1.671630859375,19.188720703125
0.069,-16.205810546875,-5.515380859375,20.950439453125
0.0695,-13.483154296875,-8.758544921875,21.470947265625
0.07,-9.999755859375,-12.161865234375,21.470947265625
0.0705,-5.795654296875,-15.685302734375,20.910400390625
0.071,-0.950927734375,-18.728271484375,19.348876953125
0.0715,3.973876953125,-20.650146484375,16.666259765625
0.072,7.096923828125,-21.410888671875,14.464111328125
0.0725,10.540283203125,-21.771240234375,11.661376953125
0.073,13.943603515625,-21.290771484375,7.937744140625
0.0735,17.266845703125,-20.169677734375,3.693603515625
0.074,19.869384765625,-18.127685546875,-0.910888671875
0.0745,21.671142578125,-15.685302734375,-5.114990234375
0.075,21.831298828125,-12.802490234375,-8.197998046875
0.0755,21.951416015625,-9.439208984375,-11.681396484375
0.076,21.310791015625,-5.235107421875,-15.284912109375
0.0765,20.189697265625,-1.031005859375,-18.367919921875
0.077,17.787353515625,3.453369140625,-20.369873046875
0.0775,15.344970703125,7.016845703125,-21.531005859375
0.078,12.261962890625,10.340087890625,-21.971435546875
0.0785,8.258056640625,13.823486328125,-21.531005859375
0.079,3.853759765625,17.026611328125,-20.489990234375
0.0795,-1.191162109375,19.789306640625,-18.528076171875
0.08,-5.595458984375,21.390869140625,-15.965576171875
0.0805,-8.598388671875,21.510986328125,-13.403076171875
0.081,-11.881591796875,21.751220703125,-10.520263671875
0.0815,-15.405029296875,20.870361328125,-6.396240234375
0.082,-18.287841796875,19.509033203125,-2.192138671875
0.0825,-20.489990234375,17.146728515625,2.412353515625
0.083,-21.851318359375,14.744384765625,6.135986328125
0.0835,-21.891357421875,11.621337890625,9.259033203125
0.084,-21.811279296875,7.977783203125,12.902587890625
0.0845,-20.970458984375,3.853759765625,16.225830078125
0.085,-19.609130859375,-0.430419921875,19.228759765625
0.0855,-17.126708984375,-4.714599609375,20.950439453125
0.086,-14.644287109375,-7.917724609375,21.591064453125
0.0865,-11.601318359375,-11.160888671875,22.031494140625
0.087,-7.076904296875,-14.884521484375,21.390869140625
0.0875,-2.632568359375,-17.767333984375,19.989501953125
0.088,2.212158203125,-20.009521484375,17.667236328125
0.0885,6.216064453125,-21.531005859375,15.425048828125
0.089,9.218994140625,-21.490966796875,12.582275390625
0.0895,12.462158203125,-21.611083984375,9.619384765625
0.09,16.065673828125,-20.650146484375,5.295166015625
0.0905,18.908447265625,-18.928466796875,0.890869140625
0.091,20.830322265625,-16.526123046875,-3.433349609375
0.0915,21.671142578125,-14.083740234375,-6.716552734375
0.092,21.831298828125,-10.960693359375,-10.039794921875
0.0925,21.510986328125,-6.876708984375,-13.883544921875
0.093,20.590087890625,-3.032958984375,-16.806396484375
0.0935,18.868408203125,1.451416015625,-19.489013671875
0.094,16.385986328125,5.575439453125,-21.170654296875
0.0945,13.423095703125,8.658447265625,-21.410888671875
0.095,10.540283203125,11.941650390625,-21.851318359375
0.0955,5.455322265625,15.985595703125,-21.010498046875
0.096,0.890869140625,18.748291015625,-19.368896484375
0.0965,-3.673583984375,20.510009765625,-16.966552734375
0.097,-7.277099609375,21.751220703125,-14.804443359375
0.0975,-10.520263671875,21.711181640625,-11.681396484375
0.098,-13.883544921875,21.390869140625,-8.278076171875
0.0985,-17.166748046875,20.349853515625,-4.114013671875
0.099,-20.009521484375,18.227783203125,0.810791015625
0.0995,-21.611083984375,15.745361328125,4.894775390625
0.1,-22.051513671875,12.902587890625,8.137939453125
0.1005,-22.291748046875,9.779541015625,11.501220703125
0.101,-21.611083984375,4.974853515625,15.705322265625
0.1015,-20.409912109375,1.091064453125,18.427978515625
0.102,-18.247802734375,-3.233154296875,20.590087890625
0.1025,-15.845458984375,-7.197021484375,22.191650390625
0.103,-12.362060546875,-10.440185546875,22.031494140625
0.1035,-9.078857421875,-13.763427734375,22.151611328125
0.104,-4.114013671875,-17.447021484375,21.030517578125
0.1045,1.251220703125,-20.249755859375,18.748291015625
0.105,5.335205078125,-21.611083984375,16.265869140625
0.1055,8.778564453125,-22.291748046875,13.783447265625
0.106,12.181884765625,-22.291748046875,10.620361328125
0.1065,15.905517578125,-21.330810546875,6.176025390625
0.107,18.748291015625,-20.089599609375,2.252197265625
0.1075,21.190673828125,-17.687255859375,-2.592529296875
0.108,22.431884765625,-15.084716796875,-6.396240234375
0.1085,22.391845703125,-11.841552734375,-9.639404296875
0.109,22.471923828125,-8.678466796875,-12.962646484375
0.1095,21.510986328125,-3.793701171875,-16.926513671875
0.11,19.869384765625,0.650634765625,-19.649169921875
0.1105,17.306884765625,4.654541015625,-21.130615234375
0.111,14.784423828125,8.298095703125,-22.411865234375
0.1115,11.180908203125,11.661376953125,-22.211669921875
0.112,6.776611328125,15.385009765625,-21.651123046875
0.1125,2.492431640625,18.307861328125,-20.489990234375
0.113,-2.912841796875,20.790283203125,-17.967529296875
0.1135,-6.676513671875,21.911376953125,-15.445068359375
0.114,-9.919677734375,21.991455078125,-12.602294921875
0.1145,-13.002685546875,22.111572265625,-9.879638671875
0.115,-16.926513671875,20.790283203125,-4.794677734375
0.1155,-19.529052734375,19.068603515625,-0.550537109375
0.116,-21.290771484375,16.666259765625,3.653564453125
0.1165,-22.331787109375,14.103759765625,7.257080078125
0.117,-22.051513671875,10.580322265625,10.460205078125
0.1175,-21.891357421875,6.896728515625,14.063720703125
0.118,-20.970458984375,2.692626953125,17.346923828125
0.1185,-19.048583984375,-1.991943359375,20.069580078125
0.119,-16.365966796875,-5.755615234375,21.310791015625
0.1195,-13.803466796875,-9.038818359375,22.031494140625
0.12,-10.680419921875,-12.241943359375,22.151611328125
0.1205,-5.395263671875,-16.365966796875,21.070556640625
0.121,-1.111083984375,-18.848388671875,19.549072265625
0.1215,3.613525390625,-20.770263671875,17.146728515625
0.122,7.177001953125,-21.811279296875,14.784423828125
0.1225,10.460205078125,-21.611083984375,11.541259765625
0.123,13.543212890625,-21.490966796875,8.578369140625
0.1235,17.226806640625,-20.329833984375,3.973876953125
0.124,19.829345703125,-18.127685546875,-0.910888671875
0.1245,21.150634765625,-15.845458984375,-4.434326171875
0.125,21.911376953125,-13.282958984375,-7.757568359375
0.1255,21.791259765625,-9.959716796875,-10.920654296875
0.126,21.150634765625,-5.435302734375,-14.924560546875
0.1265,20.189697265625,-1.751708984375,-17.647216796875
0.127,18.147705078125,2.812744140625,-20.129638671875
0.1275,15.505126953125,6.536376953125,-21.290771484375
0.128,12.302001953125,9.779541015625,-21.490966796875
0.1285,9.259033203125,12.982666015625,-21.811279296875
0.129,3.973876953125,16.906494140625,-20.530029296875
0.1295,-0.910888671875,19.468994140625,-18.447998046875
0.13,-4.714599609375,20.870361328125,-16.325927734375
0.1305,-8.197998046875,21.791259765625,-13.963623046875
0.131,-11.561279296875,21.510986328125,-10.600341796875
0.1315,-15.004638671875,20.870361328125,-6.756591796875
0.132,-18.047607421875,19.789306640625,-2.712646484375
0.1325,-20.530029296875,17.346923828125,2.252197265625
0.133,-21.531005859375,14.864501953125,5.695556640625
0.1335,-21.931396484375,11.861572265625,9.058837890625
0.134,-21.931396484375,8.658447265625,12.302001953125
0.1345,-21.090576171875,3.813720703125,16.385986328125
0.135,-19.529052734375,-0.390380859375,18.988525390625
0.1355,-17.406982421875,-4.434326171875,20.910400390625
0.136,-14.884521484375,-7.997802734375,22.031494140625
0.1365,-11.200927734375,-11.401123046875,21.911376953125
0.137,-7.517333984375,-14.884521484375,21.751220703125
0.1375,-2.592529296875,-18.207763671875,20.389892578125
0.138,2.732666015625,-20.610107421875,17.707275390625
0.1385,6.176025390625,-21.490966796875,15.465087890625
0.139,9.619384765625,-22.091552734375,12.862548828125
0.1395,12.902587890625,-21.851318359375,9.579345703125
0.14,16.626220703125,-20.690185546875,4.854736328125
0.1405,19.308837890625,-19.168701171875,0.730712890625
0.141,21.390869140625,-16.686279296875,-3.833740234375
0.1415,22.031494140625,-14.043701171875,-7.116943359375
0.142,22.031494140625,-10.560302734375,-10.560302734375
0.1425,21.831298828125,-7.116943359375,-13.883544921875
0.143,20.830322265625,-2.592529296875,-17.447021484375
0.1435,18.708251953125,2.092041015625,-19.969482421875
0.144,16.305908203125,5.815673828125,-21.210693359375
0.1445,13.623291015625,9.178955078125,-22.131591796875
0.145,9.859619140625,12.542236328125,-21.811279296875
0.1455,5.255126953125,16.345947265625,-20.970458984375
0.146,0.770751953125,19.068603515625,-19.569091796875
0.1465,-4.274169921875,21.110595703125,-16.926513671875
0.147,-7.437255859375,21.631103515625,-14.484130859375
0.1475,-10.880615234375,21.791259765625,-11.521240234375
0.148,-14.043701171875,21.470947265625,-8.278076171875
0.1485,-17.527099609375,20.149658203125,-3.553466796875
0.149,-20.009521484375,17.947509765625,1.091064453125
0.1495,-21.490966796875,15.585205078125,4.894775390625
0.15,-22.051513671875,12.862548828125,8.177978515625
0.1505,-21.851318359375,9.259033203125,11.581298828125
0.151,-21.290771484375,5.215087890625,15.184814453125
0.1515,-20.289794921875,1.171142578125,18.227783203125
0.152,-17.967529296875,-3.473388671875,20.550048828125
0.1525,-15.405029296875,-6.916748046875,21.390869140625
0.153,-12.562255859375,-10.239990234375,21.911376953125
0.1535,-8.838623046875,-13.603271484375,21.791259765625
0.154,-3.793701171875,-17.046630859375,20.429931640625
0.1545,0.810791015625,-19.529052734375,18.508056640625
0.155,5.054931640625,-21.210693359375,16.225830078125
0.1555,8.177978515625,-21.611083984375,13.703369140625
0.156,11.541259765625,-21.490966796875,10.420166015625
0.1565,14.904541015625,-20.970458984375,6.736572265625
0.157,18.027587890625,-19.609130859375,2.412353515625
0.1575,20.349853515625,-17.166748046875,-2.352294921875
0.158,21.270751953125,-14.764404296875,-5.595458984375
0.1585,21.751220703125,-12.001708984375,-8.838623046875
0.159,21.470947265625,-8.358154296875,-12.322021484375
0.1595,20.630126953125,-4.033935546875,-15.765380859375
0.16,19.348876953125,0.010009765625,-18.528076171875
0.1605,17.066650390625,4.214111328125,-20.570068359375
0.161,14.424072265625,7.417236328125,-21.250732421875
0.1615,11.260986328125,10.820556640625,-21.531005859375
0.162,7.297119140625,14.464111328125,-21.290771484375
0.1625,2.452392578125,17.747314453125,-19.889404296875
0.163,-2.432373046875,19.869384765625,-17.447021484375
0.1635,-5.875732421875,21.110595703125,-15.445068359375
0.164,-9.118896484375,21.510986328125,-12.842529296875
0.1645,-12.482177734375,21.230712890625,-9.479248046875
0.165,-15.845458984375,20.429931640625,-5.435302734375
0.1655,-18.648193359375,18.828369140625,-1.151123046875
0.166,-20.770263671875,16.345947265625,3.453369140625
0.1665,-21.290771484375,13.783447265625,6.536376953125
0.167,-21.651123046875,10.660400390625,9.939697265625
0.1675,-21.330810546875,6.696533203125,13.703369140625
0.168,-20.409912109375,2.532470703125,16.946533203125
0.1685,-18.528076171875,-1.711669921875,19.308837890625
0.169,-16.285888671875,-5.595458984375,21.070556640625
0.1695,-13.603271484375,-8.758544921875,21.510986328125
0.17,-10.119873046875,-12.121826171875,21.510986328125
0.1705,-5.755615234375,-15.645263671875,20.830322265625
0.171,-0.950927734375,-18.648193359375,19.228759765625
0.1715,3.813720703125,-20.489990234375,16.666259765625
0.172,6.976806640625,-21.210693359375,14.424072265625
0.1725,10.300048828125,-21.571044921875,11.701416015625
0.173,13.783447265625,-21.010498046875,7.817626953125
0.1735,16.906494140625,-19.929443359375,3.853759765625
0.174,19.468994140625,-17.967529296875,-0.670654296875
0.1745,21.190673828125,-15.565185546875,-4.794677734375
0.175,21.390869140625,-12.762451171875,-7.717529296875
0.1755,21.551025390625,-9.599365234375,-11.160888671875
0.176,20.910400390625,-5.435302734375,-14.764404296875
0.1765,19.869384765625,-1.311279296875,-17.887451171875
0.177,17.547119140625,3.012939453125,-19.849365234375
0.1775,15.224853515625,6.536376953125,-21.050537109375
0.178,12.302001953125,9.779541015625,-21.490966796875
0.1785,8.378173828125,13.343017578125,-21.130615234375
0.179,4.134033203125,16.466064453125,-20.209716796875
0.1795,-0.790771484375,19.188720703125,-18.287841796875
0.18,-5.034912109375,20.790283203125,-15.885498046875
0.1805,-7.957763671875,20.990478515625,-13.443115234375
0.181,-11.321044921875,21.270751953125,-10.720458984375
