wavelength,x,y,z
0.0,-6.326171875,-2.162109375,8.16796875
0.0005,-5.4052734375,-4.00390625,9.0087890625
0.001,-3.84375,-5.4853515625,8.96875
0.0015,-2.08203125,-6.9267578125,8.6083984375
0.002,-0.400390625,-7.767578125,7.927734375
0.0025,1.521484375,-8.8486328125,7.1669921875
0.003,3.5234375,-9.689453125,6.0859375
0.0035,4.8447265625,-10.009765625,5.0849609375
0.004,6.0859375,-9.8896484375,3.763671875
0.0045,7.0068359375,-9.048828125,2.0419921875
0.005,7.927734375,-8.2080078125,0.3203125
0.0055,8.6884765625,-6.9267578125,-1.8017578125
0.006,9.44921875,-6.0458984375,-3.443359375
0.0065,9.609375,-4.884765625,-4.7646484375
0.007,9.2490234375,-3.0830078125,-6.24609375
0.0075,8.2080078125,-1.201171875,-7.0869140625
0.008,7.3671875,0.80078125,-8.16796875
0.0085,5.8857421875,3.0830078125,-8.96875
0.009,4.8046875,4.724609375,-9.529296875
0.0095,2.9228515625,6.166015625,-9.1689453125
0.01,1.201171875,7.3671875,-8.5283203125
0.0105,-0.6005859375,8.16796875,-7.7275390625
0.011,-2.6025390625,9.0087890625,-6.6064453125
0.0115,-4.404296875,9.76953125,-5.60546875
0.012,-5.60546875,9.7294921875,-4.404296875
0.0125,-6.7666015625,9.3291015625,-2.8828125
0.013,-7.4873046875,8.2880859375,-1.1611328125
0.0135,-8.328125,7.3671875,0.640625
0.014,-8.96875,5.92578125,2.72265625
0.0145,-9.5693359375,5.0849609375,4.2041015625
0.015,-9.44921875,3.7236328125,5.4453125
0.0155,-8.80859375,1.76171875,6.7265625
0.016,-7.767578125,-0.1201171875,7.5673828125
0.0165,-6.646484375,-2.2021484375,8.48828125
0.017,-5.28515625,-4.3642578125,9.2490234375
0.0175,-3.84375,-5.845703125,9.2890625
0.018,-2.08203125,-7.1669921875,8.96875
0.0185,-0.400390625,-8.0478515625,8.2080078125
0.019,1.4013671875,-8.96875,7.3671875
0.0195,3.443359375,-9.689453125,6.2060546875
0.02,4.96484375,-10.330078125,5.2451171875
0.0205,6.0859375,-10.009765625,3.9638671875
0.021,7.1669921875,-9.4892578125,2.322265625
0.0215,7.8076171875,-8.408203125,0.640625
0.022,8.6083984375,-7.4072265625,-1.2412109375
0.0225,9.2890625,-6.166015625,-3.1630859375
0.023,9.6494140625,-5.205078125,-4.484375
0.0235,9.44921875,-3.68359375,-5.765625
0.024,8.48828125,-1.76171875,-6.7666015625
0.0245,7.607421875,0.0400390625,-7.6875
0.025,6.40625,2.1220703125,-8.6083984375
0.0255,5.28515625,4.0439453125,-9.369140625
0.026,3.68359375,5.4052734375,-9.12890625
0.0265,1.921875,6.7666015625,-8.728515625
0.027,0.2802734375,7.52734375,-7.8876953125
0.0275,-1.4814453125,8.4482421875,-7.1669921875
0.028,-3.36328125,9.2490234375,-6.0859375
0.0285,-4.6845703125,9.609375,-5.1650390625
0.029,-5.765625,9.2490234375,-3.8037109375
0.0295,-6.7666015625,8.6083984375,-2.162109375
0.03,-7.52734375,7.6875,-0.5205078125
0.0305,-8.2880859375,6.56640625,1.4013671875
0.031,-9.0087890625,5.7255859375,3.04296875
0.0315,-9.208984375,4.724609375,4.244140625
0.032,-8.96875,3.0029296875,5.685546875
0.0325,-8.0478515625,1.12109375,6.56640625
0.033,-7.20703125,-0.80078125,7.6474609375
0.0335,-5.9658203125,-2.8427734375,8.408203125
0.034,-4.96484375,-4.4443359375,9.0888671875
0.0345,-3.3232421875,-5.765625,8.728515625
0.035,-1.6416015625,-7.046875,8.4482421875
0.0355,0.0,-7.8876953125,7.6875
0.036,1.8017578125,-8.8486328125,6.88671875
0.0365,3.5634765625,-9.689453125,6.005859375
0.037,4.8046875,-9.76953125,4.96484375
0.0375,5.9658203125,-9.5693359375,3.5634765625
0.038,6.8466796875,-8.728515625,1.921875
0.0385,7.7275390625,-7.927734375,0.240234375
0.039,8.48828125,-6.806640625,-1.7216796875
0.0395,9.2890625,-6.1259765625,-3.203125
0.04,9.2490234375,-4.884765625,-4.4443359375
0.0405,8.888671875,-3.0830078125,-5.845703125
0.041,7.927734375,-1.28125,-6.7265625
0.0415,7.126953125,0.640625,-7.8876953125
0.042,5.9658203125,2.7626953125,-8.728515625
0.0425,4.8046875,4.32421875,-9.12890625
0.043,3.04296875,5.7255859375,-8.728515625
0.0435,1.4013671875,6.8466796875,-8.248046875
0.044,-0.3603515625,7.767578125,-7.52734375
0.0445,-2.2421875,8.6484375,-6.6064453125
0.045,-3.8837890625,9.44921875,-5.8056640625
0.0455,-5.0048828125,9.2890625,-4.564453125
0.046,-6.2861328125,8.96875,-3.0029296875
0.0465,-7.0068359375,8.0078125,-1.361328125
0.047,-7.9677734375,7.1669921875,0.48046875
0.0475,-8.728515625,6.0859375,2.3623046875
0.048,-9.2890625,5.205078125,3.84375
0.0485,-9.12890625,3.763671875,5.0849609375
0.049,-8.48828125,1.841796875,6.3662109375
0.0495,-7.5673828125,0.0,7.287109375
0.05,-6.56640625,-2.08203125,8.2880859375
0.0505,-5.3251953125,-4.1240234375,9.1689453125
0.051,-3.8037109375,-5.5654296875,9.0087890625
0.0515,-2.001953125,-6.966796875,8.6884765625
0.052,-0.400390625,-7.84765625,8.0078125
0.0525,1.44140625,-8.8486328125,7.2470703125
0.053,3.443359375,-9.7294921875,6.24609375
0.0535,5.0048828125,-10.25,5.1650390625
0.054,6.0859375,-9.8095703125,3.7236328125
0.0545,7.20703125,-9.2890625,2.08203125
0.055,7.8876953125,-8.2080078125,0.3603515625
0.0555,8.7685546875,-7.20703125,-1.6015625
0.056,9.5693359375,-6.0859375,-3.5234375
0.0565,9.6494140625,-4.884765625,-4.884765625
0.057,9.2890625,-3.1630859375,-6.24609375
0.0575,8.2880859375,-1.2412109375,-7.20703125
0.058,7.3671875,0.7607421875,-8.087890625
0.0585,6.1259765625,2.8427734375,-8.96875
0.059,4.8447265625,4.8046875,-9.689453125
0.0595,2.962890625,6.1259765625,-9.0888671875
0.06,1.2412109375,7.447265625,-8.6884765625
0.0605,-0.560546875,8.16796875,-7.7275390625
0.061,-2.3623046875,8.96875,-6.806640625
0.0615,-4.2841796875,9.76953125,-5.765625
0.062,-5.6455078125,9.849609375,-4.484375
0.0625,-6.6865234375,9.2490234375,-2.8828125
0.063,-7.5673828125,8.4482421875,-1.2412109375
0.0635,-8.2080078125,7.3671875,0.6005859375
0.064,-8.9287109375,6.1259765625,2.482421875
0.0645,-9.6494140625,5.044921875,4.244140625
0.065,-9.3291015625,3.68359375,5.365234375
0.0655,-8.8486328125,1.841796875,6.6865234375
0.066,-7.7275390625,0.0,7.447265625
0.0665,-6.806640625,-1.921875,8.3681640625
0.067,-5.4453125,-3.9638671875,9.12890625
0.0675,-4.00390625,-5.6455078125,9.4091796875
0.068,-2.2021484375,-6.8466796875,8.6884765625
0.0685,-0.6005859375,-7.9677734375,8.2880859375
0.069,1.12109375,-8.6884765625,7.3671875
0.0695,2.9228515625,-9.44921875,6.40625
0.07,4.6845703125,-10.2099609375,5.4453125
0.0705,5.765625,-9.8896484375,4.1240234375
0.071,6.88671875,-9.44921875,2.5625
0.0715,7.52734375,-8.408203125,0.9609375
0.072,8.328125,-7.52734375,-0.80078125
0.0725,9.0087890625,-6.4462890625,-2.6025390625
0.073,9.5693359375,-5.4453125,-4.1640625
0.0735,9.1689453125,-4.00390625,-5.2451171875
0.074,8.6083984375,-2.1220703125,-6.486328125
0.0745,7.52734375,-0.3603515625,-7.2470703125
0.075,6.6865234375,1.521484375,-8.248046875
0.0755,5.5654296875,3.4833984375,-9.0087890625
0.076,4.083984375,4.9248046875,-8.96875
0.0765,2.3623046875,6.1259765625,-8.48828125
0.077,0.80078125,7.046875,-7.927734375
0.0775,-0.9208984375,7.9677734375,-7.20703125
0.078,-2.5625,8.7685546875,-6.40625
0.0785,-4.1240234375,9.4091796875,-5.525390625
0.079,-5.044921875,8.96875,-4.2041015625
0.0795,-6.2861328125,8.6083984375,-2.642578125
0.08,-6.88671875,7.6875,-1.1611328125
0.0805,-7.84765625,6.806640625,0.6806640625
0.081,-8.6083984375,6.005859375,2.2822265625
0.0815,-8.96875,5.044921875,3.603515625
0.082,-8.6884765625,3.5634765625,4.8447265625
0.0825,-8.087890625,1.76171875,6.0458984375
0.083,-7.2470703125,0.0,7.0068359375
0.0835,-6.40625,-1.8818359375,7.9677734375
0.084,-5.3251953125,-3.7236328125,8.728515625
0.0845,-3.84375,-5.0048828125,8.48828125
0.085,-2.2021484375,-6.3662109375,8.2880859375
0.0855,-0.6806640625,-7.2470703125,7.6875
0.086,1.041015625,-8.2880859375,7.046875
0.0865,2.6826171875,-9.1689453125,6.3662109375
0.087,4.1240234375,-9.609375,5.4052734375
0.0875,5.125,-9.2490234375,4.083984375
0.088,6.2861328125,-8.80859375,2.5224609375
0.0885,7.0869140625,-8.0078125,0.880859375
0.089,8.0478515625,-7.20703125,-0.9208984375
0.0895,8.9287109375,-6.4462890625,-2.5625
0.09,9.0087890625,-5.28515625,-3.8037109375
0.0905,8.728515625,-3.603515625,-5.1650390625
0.091,7.927734375,-1.8017578125,-6.166015625
0.0915,7.2470703125,0.0400390625,-7.3271484375
0.092,6.326171875,1.921875,-8.2880859375
0.0925,5.205078125,3.68359375,-8.8486328125
0.093,3.4833984375,4.96484375,-8.4482421875
0.0935,1.8818359375,6.2861328125,-8.2080078125
0.094,0.2802734375,7.1669921875,-7.52734375
0.0945,-1.44140625,8.16796875,-6.8466796875
0.095,-3.1630859375,9.0087890625,-6.1259765625
0.0955,-4.3642578125,9.048828125,-4.96484375
0.096,-5.525390625,8.728515625,-3.4833984375
0.0965,-6.4462890625,7.9677734375,-1.921875
0.097,-7.3271484375,7.1669921875,-0.240234375
0.0975,-8.248046875,6.3662109375,1.521484375
0.098,-8.96875,5.4853515625,3.1630859375
0.0985,-8.80859375,4.2041015625,4.32421875
0.099,-8.408203125,2.40234375,5.7255859375
0.0995,-7.4873046875,0.6005859375,6.646484375
0.1,-6.7265625,-1.28125,7.7275390625
0.1005,-5.7255859375,-3.203125,8.6484375
0.101,-4.244140625,-4.8447265625,8.80859375
0.1015,-2.5625,-6.1259765625,8.3681640625
0.102,-1.0009765625,-7.2470703125,7.9677734375
0.1025,0.720703125,-8.16796875,7.287109375
0.103,2.4423828125,-9.0888671875,6.5263671875
0.1035,4.1240234375,-9.8095703125,5.60546875
0.104,5.2451171875,-9.4892578125,4.2041015625
0.1045,6.4462890625,-9.1689453125,2.6826171875
0.105,7.20703125,-8.248046875,1.0009765625
0.1055,8.1279296875,-7.4072265625,-0.80078125
0.106,8.96875,-6.4462890625,-2.5224609375
0.1065,9.369140625,-5.3251953125,-4.083984375
0.107,8.96875,-3.7236328125,-5.28515625
0.1075,8.2880859375,-1.921875,-6.4462890625
0.108,7.3671875,0.0,-7.3271484375
0.1085,6.5263671875,1.841796875,-8.328125
0.109,5.365234375,3.84375,-9.1689453125
0.1095,3.603515625,5.2451171875,-8.8486328125
0.11,1.921875,6.5263671875,-8.48828125
0.1105,0.2802734375,7.447265625,-7.767578125
0.111,-1.521484375,8.2880859375,-7.0068359375
0.1115,-3.203125,9.1689453125,-6.166015625
0.112,-4.8046875,9.5693359375,-5.0048828125
0.1125,-5.765625,8.9287109375,-3.4833984375
0.113,-6.9267578125,8.3681640625,-1.8818359375
0.1135,-7.5673828125,7.3271484375,-0.16015625
0.114,-8.4482421875,6.4462890625,1.6416015625
0.1145,-9.208984375,5.4853515625,3.4033203125
0.115,-9.2490234375,4.1640625,4.7646484375
0.1155,-8.6884765625,2.4423828125,5.9658203125
0.116,-7.84765625,0.6005859375,7.046875
0.1165,-6.9267578125,-1.28125,7.8876953125
0.117,-5.92578125,-3.203125,8.7685546875
0.1175,-4.4443359375,-5.125,9.2490234375
0.118,-2.6025390625,-6.326171875,8.6484375
0.1185,-1.0009765625,-7.607421875,8.2880859375
0.119,0.7607421875,-8.3681640625,7.4873046875
0.1195,2.5625,-9.2490234375,6.5263671875
0.12,4.2841796875,-10.0498046875,5.685546875
0.1205,5.60546875,-10.0498046875,4.3642578125
0.121,6.6865234375,-9.44921875,2.72265625
0.1215,7.52734375,-8.6884765625,1.0810546875
0.122,8.248046875,-7.52734375,-0.720703125
0.1225,9.0087890625,-6.6064453125,-2.4423828125
0.123,9.7294921875,-5.4853515625,-4.2841796875
0.1235,9.2490234375,-3.8837890625,-5.4453125
0.124,8.6884765625,-2.08203125,-6.646484375
0.1245,7.6474609375,-0.2802734375,-7.4072265625
0.125,6.6865234375,1.6416015625,-8.328125
0.1255,5.60546875,3.603515625,-9.208984375
0.126,3.9638671875,5.3251953125,-9.3291015625
0.1265,2.1220703125,6.486328125,-8.6083984375
0.127,0.5205078125,7.5673828125,-8.16796875
0.1275,-1.28125,8.2880859375,-7.126953125
0.128,-2.962890625,9.0888671875,-6.2861328125
0.1285,-4.6845703125,9.7294921875,-5.3251953125
0.129,-5.765625,9.2490234375,-3.84375
0.1295,-6.8466796875,8.6884765625,-2.2421875
0.13,-7.5673828125,7.767578125,-0.6005859375
0.1305,-8.2880859375,6.6865234375,1.28125
0.131,-9.048828125,5.8857421875,2.8427734375
0.1315,-9.44921875,4.6044921875,4.564453125
0.132,-8.8486328125,2.9228515625,5.6455078125
0.1325,-8.2880859375,1.12109375,6.88671875
0.133,-7.126953125,-0.7607421875,7.5673828125
0.1335,-6.24609375,-2.5625,8.48828125
0.134,-5.0048828125,-4.5244140625,9.208984375
0.1345,-3.283203125,-5.92578125,8.96875
0.135,-1.6015625,-7.126953125,8.408203125
0.1355,0.080078125,-8.087890625,7.8076171875
0.136,1.8818359375,-8.8486328125,6.88671875
0.1365,3.443359375,-9.7294921875,6.1259765625
0.137,5.0849609375,-10.2099609375,5.0849609375
0.1375,6.0458984375,-9.529296875,3.4033203125
0.138,7.1669921875,-8.96875,1.841796875
0.1385,7.8076171875,-7.8876953125,0.1201171875
0.139,8.6484375,-7.0068359375,-1.681640625
0.1395,9.4091796875,-6.1259765625,-3.3232421875
0.14,9.44921875,-4.64453125,-4.8447265625
0.1405,8.8486328125,-2.962890625,-5.92578125
0.141,8.087890625,-1.12109375,-7.046875
0.1415,7.046875,0.7607421875,-7.8076171875
0.142,6.2060546875,2.5625,-8.728515625
0.1425,4.8046875,4.484375,-9.3291015625
0.143,2.962890625,5.765625,-8.728515625
0.1435,1.3212890625,7.0068359375,-8.328125
0.144,-0.400390625,7.8076171875,-7.5673828125
0.1445,-2.2021484375,8.6484375,-6.646484375
0.145,-3.763671875,9.4091796875,-5.8857421875
0.1455,-5.1650390625,9.4892578125,-4.64453125
0.146,-6.166015625,8.80859375,-2.962890625
0.1465,-7.20703125,8.2080078125,-1.3212890625
0.147,-7.84765625,7.0869140625,0.4404296875
0.1475,-8.6884765625,6.2861328125,2.0419921875
0.148,-9.3291015625,5.2451171875,3.84375
0.1485,-9.048828125,3.68359375,5.0849609375
0.149,-8.48828125,1.9619140625,6.2861328125
0.1495,-7.607421875,0.080078125,7.20703125
0.15,-6.56640625,-1.8818359375,8.1279296875
0.1505,-5.6455078125,-3.603515625,8.96875
0.151,-4.00390625,-5.4853515625,9.208984375
0.1515,-2.2021484375,-6.646484375,8.568359375
0.152,-0.6005859375,-7.84765625,8.16796875
0.1525,1.2412109375,-8.6884765625,7.20703125
0.153,2.962890625,-9.4892578125,6.3662109375
0.1535,4.6044921875,-10.2099609375,5.4453125
0.154,5.8056640625,-9.849609375,4.00390625
0.1545,6.8466796875,-9.208984375,2.40234375
0.155,7.7275390625,-8.328125,0.6806640625
0.1555,8.4482421875,-7.20703125,-1.2412109375
0.156,9.2490234375,-6.4462890625,-2.7626953125
0.1565,9.7294921875,-5.1650390625,-4.564453125
0.157,9.0888671875,-3.36328125,-5.765625
0.1575,8.48828125,-1.6015625,-6.9267578125
0.158,7.3671875,0.3603515625,-7.7275390625
0.1585,6.40625,2.2822265625,-8.6884765625
0.159,5.28515625,4.083984375,-9.369140625
0.1595,3.5234375,5.7255859375,-9.208984375
0.16,1.681640625,6.8466796875,-8.5283203125
0.1605,0.0,7.8076171875,-7.9677734375
0.161,-2.001953125,8.6083984375,-6.806640625
0.1615,-3.5634765625,9.3291015625,-6.1259765625
0.162,-5.125,9.849609375,-5.0048828125
0.1625,-6.166015625,9.1689453125,-3.36328125
0.163,-7.20703125,8.568359375,-1.681640625
0.1635,-7.8876953125,7.4873046875,0.1201171875
0.164,-8.6484375,6.40625,1.9619140625
0.1645,-9.3291015625,5.5654296875,3.4833984375
0.165,-9.529296875,4.1240234375,5.125
0.1655,-8.728515625,2.2822265625,6.2060546875
0.166,-8.0478515625,0.4404296875,7.3671875
0.1665,-6.7666015625,-1.6416015625,8.0478515625
0.167,-5.8056640625,-3.4833984375,8.96875
0.1675,-4.4443359375,-5.28515625,9.369140625
0.168,-2.6025390625,-6.56640625,8.888671875
0.1685,-0.9208984375,-7.7275390625,8.2880859375
0.169,0.9208984375,-8.6884765625,7.607421875
0.1695,2.8427734375,-9.4892578125,6.40625
0.17,4.32421875,-10.08984375,5.685546875
0.1705,5.765625,-10.25,4.484375
0.171,6.7265625,-9.4091796875,2.6826171875
0.1715,7.7275390625,-8.7685546875,1.0810546875
0.172,8.3681640625,-7.52734375,-0.880859375
0.1725,9.12890625,-6.56640625,-2.5625
0.173,9.7294921875,-5.60546875,-4.1640625
0.1735,9.4892578125,-3.8837890625,-5.6455078125
0.174,8.6884765625,-2.08203125,-6.6064453125
0.1745,7.8076171875,-0.16015625,-7.6474609375
0.175,6.5263671875,1.921875,-8.4482421875
0.1755,5.685546875,3.6435546875,-9.2890625
0.176,4.083984375,5.4052734375,-9.44921875
0.1765,2.162109375,6.5263671875,-8.728515625
0.177,0.48046875,7.607421875,-8.2080078125
0.1775,-1.44140625,8.4482421875,-7.20703125
0.178,-3.203125,9.2490234375,-6.2060546875
0.1785,-4.64453125,9.7294921875,-5.4052734375
0.179,-5.92578125,9.609375,-3.923828125
0.1795,-6.88671875,8.7685546875,-2.2421875
0.18,-7.767578125,7.9677734375,-0.5205078125
0.1805,-8.408203125,6.646484375,1.44140625
0.181,-9.12890625,5.8857421875,2.962890625
0.1815,-9.609375,4.724609375,4.6044921875
0.182,-9.048828125,2.8427734375,5.8857421875
0.1825,-8.328125,1.0810546875,7.0068359375
0.183,-7.2470703125,-0.9609375,7.84765625
0.1835,-6.0859375,-2.9228515625,8.6884765625
0.184,-5.044921875,-4.6044921875,9.2890625
0.1845,-3.283203125,-6.2861328125,9.2490234375
0.185,-1.521484375,-7.3671875,8.568359375
0.1855,0.2802734375,-8.48828125,7.927734375
0.186,2.2822265625,-9.208984375,6.7666015625
0.1865,3.8837890625,-9.9697265625,5.9658203125
0.187,5.365234375,-10.330078125,4.96484375
0.1875,6.4462890625,-9.76953125,3.3232421875
0.188,7.4072265625,-9.0087890625,1.6416015625
0.1885,8.2880859375,-8.0478515625,-0.2001953125
0.189,8.96875,-6.7666015625,-2.2021484375
0.1895,9.609375,-6.0458984375,-3.5634765625
0.19,9.8095703125,-4.64453125,-5.205078125
0.1905,8.96875,-2.642578125,-6.3662109375
0.191,8.2080078125,-0.80078125,-7.447265625
0.1915,6.966796875,1.28125,-8.248046875
0.192,5.8857421875,3.203125,-9.12890625
0.1925,4.64453125,4.8447265625,-9.529296875
0.193,2.802734375,6.2861328125,-9.12890625
0.1935,1.0009765625,7.287109375,-8.408203125
0.194,-0.8408203125,8.2880859375,-7.6474609375
0.1945,-2.8828125,9.0888671875,-6.40625
0.195,-4.244140625,9.6494140625,-5.6455078125
0.1955,-5.6455078125,9.8095703125,-4.4443359375
0.196,-6.646484375,9.0087890625,-2.6826171875
0.1965,-7.5673828125,8.248046875,-1.041015625
0.197,-8.2880859375,7.046875,0.9208984375
0.1975,-8.96875,6.0458984375,2.642578125
0.198,-9.4892578125,5.125,4.0439453125
0.1985,-9.369140625,3.5234375,5.5654296875
0.199,-8.48828125,1.6416015625,6.56640625
0.1995,-7.7275390625,-0.2802734375,7.6875
0.2,-6.2861328125,-2.40234375,8.3681640625
0.2005,-5.365234375,-4.1240234375,9.12890625
0.201,-3.84375,-5.7255859375,9.208984375
0.2015,-2.0419921875,-6.966796875,8.6484375
0.202,-0.400390625,-7.8876953125,8.0078125
0.2025,1.4814453125,-8.80859375,7.1669921875
0.203,3.3232421875,-9.5693359375,6.1259765625
0.2035,4.564453125,-10.009765625,5.365234375
0.204,5.8857421875,-9.9296875,4.083984375
0.2045,6.7265625,-9.048828125,2.3623046875
0.205,7.6875,-8.328125,0.6806640625
0.2055,8.2880859375,-7.0869140625,-1.2412109375
0.206,9.0888671875,-6.40625,-2.72265625
0.2065,9.44921875,-5.3251953125,-4.1640625
0.207,9.0888671875,-3.603515625,-5.525390625
0.2075,8.248046875,-1.8818359375,-6.4462890625
0.208,7.4072265625,0.080078125,-7.4873046875
0.2085,6.24609375,1.9619140625,-8.328125
0.209,5.4853515625,3.4833984375,-9.0087890625
0.2095,3.84375,5.044921875,-8.96875
0.21,2.1220703125,6.2060546875,-8.328125
0.2105,0.48046875,7.20703125,-7.8076171875
0.211,-1.3212890625,8.0478515625,-6.9267578125
0.2115,-2.8427734375,8.888671875,-6.24609375
0.212,-4.0439453125,9.2490234375,-5.4052734375
0.2125,-5.2451171875,8.96875,-4.00390625
0.213,-6.1259765625,8.2880859375,-2.4423828125
0.2135,-7.126953125,7.5673828125,-0.7607421875
0.214,-7.767578125,6.486328125,1.0009765625
0.2145,-8.6884765625,6.0458984375,2.322265625
0.215,-8.96875,4.8447265625,3.763671875
0.2155,-8.4482421875,3.1630859375,4.96484375
0.216,-7.84765625,1.4814453125,6.1259765625
0.2165,-6.966796875,-0.48046875,7.046875
0.217,-6.2060546875,-2.2021484375,8.0078125
0.2175,-5.2451171875,-3.7236328125,8.568359375
0.218,-3.603515625,-5.125,8.4482421875
0.2185,-2.08203125,-6.24609375,8.0478515625
0.219,-0.4404296875,-7.4072265625,7.607421875
0.2195,1.28125,-8.2880859375,6.7666015625
0.22,2.6826171875,-9.12890625,6.326171875
0.2205,3.9638671875,-9.44921875,5.4052734375
0.221,5.0849609375,-9.048828125,3.8837890625
0.2215,6.1259765625,-8.5283203125,2.40234375
0.222,7.0869140625,-7.767578125,0.6806640625
0.2225,8.0078125,-7.0869140625,-0.9609375
0.223,8.80859375,-6.5263671875,-2.2822265625
0.2235,8.96875,-5.1650390625,-3.84375
0.224,8.3681640625,-3.4833984375,-4.96484375
0.2245,7.8076171875,-1.681640625,-6.2861328125
0.225,6.9267578125,0.2001953125,-7.1669921875
0.2255,6.3662109375,1.8818359375,-8.2880859375
0.226,5.125,3.4833984375,-8.6083984375
0.2265,3.443359375,4.9248046875,-8.328125
0.227,1.8818359375,6.0458984375,-7.9677734375
0.2275,0.2001953125,7.1669921875,-7.447265625
0.228,-1.5615234375,8.087890625,-6.7265625
0.2285,-2.8828125,8.8486328125,-6.166015625
0.229,-4.2041015625,8.96875,-5.0048828125
