wavelength,x,y,z
0.0,-20.8603515625,6.005859375,13.93359375
0.0005,-19.939453125,1.841796875,17.216796875
0.001,-17.77734375,-2.5625,19.37890625
0.0015,-15.935546875,-5.8857421875,20.900390625
0.002,-13.5732421875,-8.8486328125,21.62109375
0.0025,-9.7294921875,-12.0517578125,21.060546875
0.003,-5.1650390625,-15.53515625,20.099609375
0.0035,-0.5205078125,-18.2578125,18.3779296875
0.004,4.1640625,-20.1796875,15.9755859375
0.0045,7.046875,-20.8203125,13.93359375
0.005,10.2099609375,-20.8603515625,11.0107421875
0.0055,13.61328125,-20.2998046875,7.3271484375
0.006,16.7763671875,-19.0986328125,3.123046875
0.0065,19.0986328125,-17.0166015625,-1.28125
0.007,20.740234375,-15.0146484375,-4.884765625
0.0075,21.140625,-12.3720703125,-7.927734375
0.008,20.9404296875,-8.888671875,-11.2509765625
0.0085,20.2998046875,-4.884765625,-14.6943359375
0.009,19.21875,-1.0009765625,-17.6171875
0.0095,17.0166015625,3.2431640625,-19.619140625
0.01,14.974609375,6.3662109375,-20.6201171875
0.0105,12.251953125,9.44921875,-21.1005859375
0.011,8.248046875,12.892578125,-20.66015625
0.0115,3.5634765625,16.1357421875,-19.37890625
0.012,-1.0810546875,18.5380859375,-17.3369140625
0.0125,-5.0048828125,20.2197265625,-15.4150390625
0.013,-7.84765625,20.6201171875,-13.1728515625
0.0135,-10.9306640625,20.4599609375,-10.1298828125
0.014,-14.494140625,19.8193359375,-6.1259765625
0.0145,-17.4169921875,18.41796875,-1.9619140625
0.015,-19.5390625,16.1357421875,2.40234375
0.0155,-20.7802734375,14.173828125,5.60546875
0.016,-21.1005859375,11.3310546875,8.7685546875
0.0165,-20.7802734375,7.4873046875,12.33203125
0.017,-19.9794921875,3.4833984375,15.5751953125
0.0175,-18.498046875,-0.720703125,18.2177734375
0.018,-16.5361328125,-4.6044921875,20.2197265625
0.0185,-14.2939453125,-7.4072265625,20.8603515625
0.019,-11.37109375,-10.490234375,21.1005859375
0.0195,-6.9267578125,-14.25390625,20.5
0.02,-2.2021484375,-17.3369140625,18.9384765625
0.0205,2.482421875,-19.21875,16.6162109375
0.021,5.845703125,-20.7001953125,14.9345703125
0.0215,8.80859375,-20.8203125,12.33203125
0.022,12.171875,-20.419921875,8.8486328125
0.0225,15.4951171875,-19.69921875,4.884765625
0.023,18.3779296875,-17.9775390625,0.4404296875
0.0235,20.33984375,-15.7353515625,-3.7236328125
0.024,21.0205078125,-13.533203125,-6.7265625
0.0245,21.2607421875,-10.5302734375,-10.009765625
0.025,20.740234375,-6.1259765625,-13.8935546875
0.0255,19.8193359375,-2.3623046875,-16.81640625
0.026,17.9375,1.841796875,-18.9384765625
0.0265,16.0556640625,5.525390625,-20.900390625
0.027,13.2529296875,8.48828125,-21.140625
0.0275,9.849609375,11.8115234375,-21.060546875
0.028,5.2451171875,15.455078125,-20.2998046875
0.0285,0.2802734375,18.3779296875,-18.4580078125
0.029,-4.0439453125,20.0595703125,-16.1357421875
0.0295,-7.0869140625,21.060546875,-14.3740234375
0.03,-10.25,21.1005859375,-11.4111328125
0.0305,-13.93359375,20.33984375,-7.2470703125
0.031,-16.8564453125,19.37890625,-3.4833984375
0.0315,-19.458984375,17.296875,1.201171875
0.032,-21.2607421875,15.0947265625,5.125
0.0325,-21.5009765625,12.33203125,8.1279296875
0.033,-21.62109375,9.0888671875,11.53125
0.0335,-20.900390625,4.484375,15.4150390625
0.034,-19.619140625,0.400390625,18.337890625
0.0345,-17.4169921875,-3.68359375,20.1796875
0.035,-15.615234375,-7.046875,21.78125
0.0355,-12.4521484375,-10.1298828125,21.78125
0.036,-8.328125,-13.7333984375,21.30078125
0.0365,-3.8837890625,-16.8564453125,20.1796875
0.037,1.44140625,-19.5390625,17.857421875
0.0375,5.4453125,-21.1005859375,15.6953125
0.038,8.3681640625,-21.4208984375,13.3330078125
0.0385,11.5712890625,-21.5009765625,10.41015625
0.039,15.615234375,-20.419921875,5.5654296875
0.0395,18.2177734375,-19.0185546875,1.5615234375
0.04,20.4599609375,-16.7763671875,-2.8427734375
0.0405,21.94140625,-14.6943359375,-6.486328125
0.041,21.8212890625,-11.451171875,-9.6494140625
0.0415,21.6611328125,-7.7275390625,-13.3330078125
0.042,20.8203125,-3.5234375,-16.576171875
0.0425,19.05859375,1.0009765625,-19.3388671875
0.043,16.736328125,4.9248046875,-20.9404296875
0.0435,14.5341796875,8.0078125,-21.861328125
0.044,11.3310546875,11.2509765625,-21.9814453125
0.0445,6.1259765625,15.3349609375,-21.0205078125
0.045,1.921875,17.9775390625,-19.5791015625
0.0455,-2.962890625,20.2197265625,-17.2568359375
0.046,-6.6865234375,21.6611328125,-15.294921875
0.0465,-9.6494140625,21.380859375,-12.2919921875
0.047,-12.8525390625,21.30078125,-9.208984375
0.0475,-16.576171875,20.1796875,-4.5244140625
0.048,-19.298828125,18.177734375,0.2001953125
0.0485,-20.98046875,15.935546875,4.00390625
0.049,-22.0615234375,13.61328125,7.4072265625
0.0495,-21.861328125,10.2099609375,10.650390625
0.05,-21.3408203125,5.685546875,14.734375
0.0505,-20.3798828125,1.9619140625,17.45703125
0.051,-18.4580078125,-2.5224609375,19.9794921875
0.0515,-16.2158203125,-6.24609375,21.62109375
0.052,-13.4931640625,-9.0888671875,21.78125
0.0525,-10.5302734375,-12.2119140625,21.9814453125
0.053,-4.9248046875,-16.2158203125,20.66015625
0.0535,-0.2802734375,-18.7783203125,18.658203125
0.054,3.9638671875,-20.5,16.49609375
0.0545,7.4873046875,-21.78125,14.5341796875
0.055,10.6103515625,-21.30078125,11.130859375
0.0555,14.0537109375,-20.8203125,7.4072265625
0.056,17.2568359375,-19.8994140625,3.4033203125
0.0565,19.859375,-17.6572265625,-1.44140625
0.057,21.2607421875,-15.455078125,-5.044921875
0.0575,21.78125,-12.7724609375,-8.2880859375
0.058,21.78125,-9.529296875,-11.451171875
0.0585,20.98046875,-4.6044921875,-15.6552734375
0.059,19.619140625,-0.7607421875,-18.1376953125
0.0595,17.6171875,3.3232421875,-20.2197265625
0.06,15.6552734375,6.9267578125,-21.861328125
0.0605,12.091796875,10.0498046875,-21.5009765625
0.061,8.6484375,13.4130859375,-21.5009765625
0.0615,3.603515625,17.0166015625,-20.2998046875
0.062,-1.681640625,19.5390625,-17.8173828125
0.0625,-5.205078125,20.8203125,-15.85546875
0.063,-8.48828125,21.6611328125,-13.61328125
0.0635,-11.6513671875,21.3408203125,-10.3701171875
0.064,-15.4951171875,20.2998046875,-5.6455078125
0.0645,-18.2177734375,19.0185546875,-1.8017578125
0.065,-20.419921875,16.65625,2.6826171875
0.0655,-21.6611328125,14.4140625,6.1259765625
0.066,-21.62109375,11.2509765625,9.3291015625
0.0665,-21.5810546875,7.8876953125,12.6923828125
0.067,-20.66015625,3.2431640625,16.49609375
0.0675,-18.8583984375,-1.1611328125,19.05859375
0.068,-16.7763671875,-4.7646484375,20.6201171875
0.0685,-14.89453125,-8.0078125,22.021484375
0.069,-11.2509765625,-11.0908203125,21.5810546875
0.0695,-6.7265625,-14.7744140625,20.8603515625
0.07,-2.322265625,-17.7373046875,19.5791015625
0.0705,2.802734375,-20.01953125,17.0166015625
0.071,6.1259765625,-21.140625,15.0546875
0.0715,9.2490234375,-21.2607421875,12.33203125
0.072,12.412109375,-21.1005859375,9.2490234375
0.0725,16.255859375,-19.939453125,4.4443359375
0.073,18.73828125,-18.1376953125,0.16015625
0.0735,20.5,-16.095703125,-3.68359375
0.074,21.541015625,-13.7734375,-6.9267578125
0.0745,21.220703125,-10.25,-10.169921875
0.075,20.8603515625,-6.3662109375,-13.8134765625
0.0755,20.0595703125,-2.4423828125,-16.8564453125
0.076,17.9775390625,2.0419921875,-19.298828125
0.0765,15.85546875,5.4052734375,-20.580078125
0.077,13.453125,8.5283203125,-21.380859375
0.0775,10.1298828125,11.69140625,-21.2607421875
0.078,4.8046875,15.6552734375,-20.01953125
0.0785,0.5205078125,18.1376953125,-18.4580078125
0.079,-3.84375,20.01953125,-16.2958984375
0.0795,-7.0869140625,21.0205078125,-14.2939453125
0.08,-10.25,20.740234375,-11.05078125
0.0805,-13.373046875,20.33984375,-7.927734375
0.081,-16.736328125,19.21875,-3.4833984375
0.0815,-19.1787109375,16.896484375,1.28125
0.082,-20.5,14.89453125,4.6044921875
0.0825,-21.2607421875,12.412109375,7.84765625
0.083,-21.0205078125,9.0087890625,11.0107421875
0.0835,-20.33984375,4.564453125,14.8544921875
0.084,-19.21875,0.8408203125,17.537109375
0.0845,-17.3369140625,-3.36328125,19.779296875
0.085,-15.2548828125,-6.56640625,20.98046875
0.0855,-12.251953125,-9.609375,21.1005859375
0.086,-8.96875,-12.8125,21.1005859375
0.0865,-3.6435546875,-16.49609375,19.619140625
0.087,1.201171875,-18.73828125,17.3369140625
0.0875,4.724609375,-20.259765625,15.53515625
0.088,7.927734375,-21.0205078125,13.4130859375
0.0885,11.05078125,-20.6201171875,10.0498046875
0.089,14.57421875,-19.9794921875,6.0458984375
0.0895,17.45703125,-18.7783203125,2.0419921875
0.09,19.69921875,-16.3759765625,-2.5224609375
0.0905,20.7802734375,-14.333984375,-5.6455078125
0.091,21.1806640625,-11.4111328125,-8.9287109375
0.0915,20.9404296875,-8.0078125,-12.171875
0.092,20.1396484375,-3.5634765625,-15.8154296875
0.0925,18.4580078125,0.560546875,-18.2578125
0.093,16.65625,4.2041015625,-20.1796875
0.0935,14.4541015625,7.4072265625,-21.2607421875
0.094,10.9306640625,10.6904296875,-21.0205078125
0.0945,6.88671875,14.25390625,-20.66015625
0.095,2.162109375,17.4169921875,-19.298828125
0.0955,-2.8427734375,19.5390625,-16.736328125
0.096,-5.92578125,20.6201171875,-15.0146484375
0.0965,-9.048828125,21.060546875,-12.5322265625
0.097,-12.412109375,20.580078125,-8.96875
0.0975,-15.8955078125,19.5390625,-4.64453125
0.098,-18.578125,17.8974609375,-0.3603515625
0.0985,-20.5,15.6552734375,3.84375
0.099,-21.220703125,13.3330078125,6.88671875
0.0995,-21.2607421875,10.0498046875,10.2099609375
0.1,-20.900390625,6.1259765625,13.8134765625
0.1005,-19.9794921875,1.9619140625,17.0966796875
0.101,-17.857421875,-2.40234375,19.3388671875
0.1015,-16.015625,-5.765625,20.900390625
0.102,-13.6533203125,-8.8486328125,21.7412109375
0.1025,-9.849609375,-12.1318359375,21.1806640625
0.103,-5.2451171875,-15.615234375,20.2998046875
0.1035,-0.6005859375,-18.41796875,18.578125
0.104,4.1240234375,-20.33984375,16.17578125
0.1045,7.046875,-21.060546875,14.2138671875
0.105,10.2900390625,-21.140625,11.2509765625
0.1055,13.7734375,-20.580078125,7.3671875
0.106,17.0166015625,-19.37890625,3.123046875
0.1065,19.37890625,-17.2568359375,-1.361328125
0.107,21.1005859375,-15.21484375,-5.0849609375
0.1075,21.5009765625,-12.5322265625,-8.16796875
0.108,21.380859375,-8.96875,-11.611328125
0.1085,20.7001953125,-4.8447265625,-15.0947265625
0.109,19.5791015625,-0.80078125,-18.0576171875
0.1095,17.296875,3.5234375,-20.1396484375
0.11,15.21484375,6.6865234375,-21.1806640625
0.1105,12.412109375,9.9296875,-21.701171875
0.111,8.087890625,13.5732421875,-21.140625
0.1115,3.443359375,16.7763671875,-19.8994140625
0.112,-1.4013671875,19.1787109375,-17.7373046875
0.1125,-5.4453125,20.900390625,-15.7353515625
0.113,-8.328125,21.140625,-13.3330078125
0.1135,-11.5712890625,21.0205078125,-10.2099609375
0.114,-15.2548828125,20.259765625,-5.92578125
0.1145,-18.1376953125,18.73828125,-1.6015625
0.115,-20.2197265625,16.3759765625,2.8427734375
0.1155,-21.5009765625,14.25390625,6.166015625
0.116,-21.7412109375,11.2509765625,9.44921875
0.1165,-21.30078125,7.20703125,13.1328125
0.117,-20.4599609375,3.203125,16.2958984375
0.1175,-18.818359375,-1.12109375,18.9384765625
0.118,-16.65625,-5.125,20.98046875
0.1185,-14.4541015625,-8.0078125,21.4609375
0.119,-11.37109375,-11.0908203125,21.6611328125
0.1195,-6.6865234375,-14.89453125,20.900390625
0.12,-1.8818359375,-17.8173828125,19.21875
0.1205,2.802734375,-19.7392578125,16.81640625
0.121,6.2861328125,-21.220703125,14.974609375
0.1215,9.3291015625,-21.1806640625,12.171875
0.122,12.6123046875,-20.740234375,8.6884765625
0.1225,15.9755859375,-19.8994140625,4.64453125
0.123,18.73828125,-18.0576171875,0.1201171875
0.1235,20.66015625,-15.775390625,-4.0439453125
0.124,21.380859375,-13.453125,-7.0869140625
0.1245,21.5810546875,-10.330078125,-10.41015625
0.125,20.98046875,-5.92578125,-14.2939453125
0.1255,19.9794921875,-2.1220703125,-17.13671875
0.126,17.9775390625,2.0419921875,-19.2587890625
0.1265,16.095703125,5.7255859375,-21.1005859375
0.127,13.212890625,8.6884765625,-21.220703125
0.1275,9.8896484375,11.8916015625,-21.1806640625
0.128,5.1650390625,15.5751953125,-20.33984375
0.1285,0.240234375,18.337890625,-18.4580078125
0.129,-4.0439453125,20.01953125,-16.0556640625
0.1295,-7.126953125,20.9404296875,-14.25390625
0.13,-10.2900390625,20.98046875,-11.291015625
0.1305,-13.8134765625,20.2197265625,-7.20703125
0.131,-16.6962890625,19.21875,-3.4833984375
0.1315,-19.21875,17.13671875,1.12109375
0.132,-20.98046875,15.0146484375,5.0048828125
0.1325,-21.1806640625,12.2119140625,7.9677734375
0.133,-21.3408203125,9.048828125,11.291015625
0.1335,-20.66015625,4.5244140625,15.1748046875
0.134,-19.4189453125,0.5205078125,18.017578125
0.1345,-17.2568359375,-3.443359375,19.8193359375
0.135,-15.53515625,-6.7265625,21.380859375
0.1355,-12.4521484375,-9.76953125,21.4609375
0.136,-8.408203125,-13.212890625,20.98046875
0.1365,-4.0439453125,-16.3759765625,19.8994140625
0.137,1.12109375,-18.978515625,17.6171875
0.1375,5.044921875,-20.6201171875,15.4951171875
0.138,7.8876953125,-20.900390625,13.212890625
0.1385,11.05078125,-21.0205078125,10.490234375
0.139,14.974609375,-20.01953125,5.7255859375
0.1395,17.6171875,-18.6982421875,1.8818359375
0.14,19.779296875,-16.576171875,-2.322265625
0.1405,21.30078125,-14.6142578125,-5.8857421875
0.141,21.220703125,-11.451171875,-8.96875
0.1415,21.140625,-7.767578125,-12.6123046875
0.142,20.419921875,-3.763671875,-15.8955078125
0.1425,18.818359375,0.640625,-18.658203125
0.143,16.6162109375,4.4443359375,-20.33984375
0.1435,14.4541015625,7.4873046875,-21.220703125
0.144,11.451171875,10.6904296875,-21.5009765625
0.1445,6.2861328125,14.734375,-20.5400390625
0.145,2.2421875,17.296875,-19.2587890625
0.1455,-2.6025390625,19.4990234375,-17.0166015625
0.146,-6.24609375,21.060546875,-15.0947265625
0.1465,-9.12890625,20.8203125,-12.2119140625
0.147,-12.2919921875,20.7802734375,-9.2490234375
0.1475,-16.095703125,19.8193359375,-4.64453125
0.148,-18.73828125,17.77734375,0.0
0.1485,-20.419921875,15.6953125,3.7236328125
0.149,-21.5009765625,13.4931640625,7.046875
0.1495,-21.4609375,10.2099609375,10.2099609375
0.15,-20.98046875,5.8056640625,14.2138671875
0.1505,-20.01953125,2.2021484375,16.9365234375
0.151,-18.1376953125,-2.2421875,19.458984375
0.1515,-16.015625,-5.92578125,21.1005859375
0.152,-13.3330078125,-8.7685546875,21.2607421875
0.1525,-10.41015625,-11.8916015625,21.541015625
0.153,-4.96484375,-15.935546875,20.2998046875
0.1535,-0.3203125,-18.4580078125,18.2978515625
0.154,3.763671875,-20.01953125,16.2158203125
0.1545,7.1669921875,-21.30078125,14.25390625
0.155,10.330078125,-20.900390625,11.0107421875
0.1555,13.7734375,-20.419921875,7.3271484375
0.156,16.896484375,-19.5390625,3.36328125
0.1565,19.458984375,-17.296875,-1.361328125
0.157,20.8603515625,-15.21484375,-4.884765625
0.1575,21.380859375,-12.5322265625,-8.0478515625
0.158,21.4208984375,-9.4091796875,-11.2509765625
0.1585,20.6201171875,-4.564453125,-15.3349609375
0.159,19.298828125,-0.80078125,-17.8173828125
0.1595,17.3369140625,3.1630859375,-19.779296875
0.16,15.375,6.7265625,-21.4208984375
0.1605,11.8515625,9.76953125,-21.1005859375
0.161,8.408203125,13.0927734375,-21.060546875
0.1615,3.5634765625,16.6162109375,-19.8994140625
0.162,-1.5615234375,19.05859375,-17.4169921875
0.1625,-5.0048828125,20.33984375,-15.53515625
0.163,-8.16796875,21.1005859375,-13.3330078125
0.1635,-11.2109375,20.8203125,-10.2900390625
0.164,-15.0546875,19.779296875,-5.6455078125
0.1645,-17.6572265625,18.5380859375,-1.8818359375
0.165,-19.8193359375,16.3359375,2.482421875
0.1655,-21.1005859375,14.2138671875,5.8857421875
0.166,-21.0205078125,11.05078125,8.96875
0.1665,-21.0205078125,7.8076171875,12.2919921875
0.167,-20.2197265625,3.3232421875,15.9755859375
0.1675,-18.41796875,-1.0009765625,18.498046875
0.168,-16.4560546875,-4.4443359375,19.9794921875
0.1685,-14.6142578125,-7.607421875,21.380859375
0.169,-11.130859375,-10.6103515625,20.98046875
0.1695,-6.646484375,-14.2939453125,20.259765625
0.17,-2.4423828125,-17.13671875,19.05859375
0.1705,2.482421875,-19.2587890625,16.65625
0.171,5.7255859375,-20.419921875,14.7744140625
0.1715,8.7685546875,-20.5400390625,12.1318359375
0.172,11.771484375,-20.5,9.2490234375
0.1725,15.5751953125,-19.37890625,4.5244140625
0.173,18.017578125,-17.6572265625,0.400390625
0.1735,19.69921875,-15.6953125,-3.203125
0.174,20.8203125,-13.4931640625,-6.4462890625
0.1745,20.580078125,-10.25,-9.529296875
0.175,20.2998046875,-6.3662109375,-13.1728515625
0.1755,19.4990234375,-2.642578125,-16.1357421875
0.176,17.6171875,1.681640625,-18.578125
0.1765,15.615234375,4.96484375,-19.939453125
0.177,13.2529296875,8.0078125,-20.66015625
0.1775,10.08984375,11.0908203125,-20.7001953125
0.178,4.8447265625,15.0546875,-19.5390625
0.1785,0.640625,17.537109375,-17.9775390625
0.179,-3.4033203125,19.3388671875,-16.015625
0.1795,-6.56640625,20.419921875,-14.1337890625
0.18,-9.6494140625,20.1396484375,-10.970703125
0.1805,-12.892578125,19.859375,-7.7275390625
0.181,-16.17578125,18.8583984375,-3.5634765625
0.1815,-18.578125,16.6162109375,1.041015625
0.182,-19.8994140625,14.734375,4.1640625
0.1825,-20.66015625,12.2919921875,7.3671875
0.183,-20.4599609375,9.0087890625,10.4501953125
0.1835,-19.7392578125,4.6044921875,14.2939453125
0.184,-18.73828125,0.9609375,16.9365234375
0.1845,-16.9365234375,-3.0830078125,19.0986328125
0.185,-14.974609375,-6.2060546875,20.33984375
0.1855,-12.0517578125,-9.208984375,20.419921875
0.186,-8.8486328125,-12.33203125,20.4599609375
0.1865,-3.7236328125,-15.8955078125,19.138671875
0.187,1.0009765625,-18.1376953125,16.896484375
0.1875,4.32421875,-19.5791015625,15.21484375
0.188,7.4873046875,-20.419921875,13.1728515625
0.1885,10.5302734375,-20.0595703125,9.9697265625
0.189,14.09375,-19.4189453125,5.9658203125
0.1895,16.9365234375,-18.2978515625,2.08203125
0.19,19.0986328125,-16.0556640625,-2.2421875
0.1905,20.1796875,-14.1337890625,-5.205078125
0.191,20.4599609375,-11.2509765625,-8.408203125
0.1915,20.2998046875,-7.84765625,-11.7314453125
0.192,19.5791015625,-3.603515625,-15.2548828125
0.1925,17.9375,0.4404296875,-17.6572265625
0.193,16.255859375,3.8837890625,-19.458984375
0.1935,14.1337890625,6.966796875,-20.580078125
0.194,10.73046875,10.169921875,-20.259765625
0.1945,6.6865234375,13.693359375,-19.939453125
0.195,2.2021484375,16.6962890625,-18.658203125
0.1955,-2.6025390625,18.818359375,-16.2158203125
0.196,-5.525390625,19.859375,-14.57421875
0.1965,-8.6083984375,20.2998046875,-12.171875
0.197,-11.771484375,19.859375,-8.8486328125
0.1975,-15.2548828125,18.8984375,-4.64453125
0.198,-17.7373046875,17.2568359375,-0.5205078125
0.1985,-19.619140625,15.21484375,3.4833984375
0.199,-20.3798828125,13.0126953125,6.40625
0.1995,-20.3798828125,9.8095703125,9.609375
0.2,-20.01953125,6.0859375,13.052734375
0.2005,-19.21875,2.08203125,16.17578125
0.201,-17.1767578125,-2.1220703125,18.3779296875
0.2015,-15.455078125,-5.28515625,19.8193359375
0.202,-13.29296875,-8.2080078125,20.66015625
0.2025,-9.7294921875,-11.291015625,20.2998046875
0.203,-5.1650390625,-14.7744140625,19.37890625
0.2035,-0.7607421875,-17.4169921875,17.77734375
0.204,3.603515625,-19.298828125,15.615234375
0.2045,6.40625,-20.0595703125,13.7734375
0.205,9.529296875,-20.1396484375,10.970703125
0.2055,12.8525390625,-19.69921875,7.3671875
0.206,15.9755859375,-18.658203125,3.4033203125
0.2065,18.2978515625,-16.65625,-0.9208984375
0.207,19.859375,-14.814453125,-4.244140625
0.2075,20.4599609375,-12.33203125,-7.3271484375
0.208,20.33984375,-8.96875,-10.6103515625
0.2085,19.7392578125,-5.0048828125,-14.0537109375
0.209,18.73828125,-1.201171875,-16.9365234375
0.2095,16.7763671875,2.9228515625,-19.0986328125
0.21,14.7744140625,5.9658203125,-20.1396484375
0.2105,12.1318359375,9.0888671875,-20.66015625
0.211,8.16796875,12.65234375,-20.2998046875
0.2115,3.6435546875,15.85546875,-19.138671875
0.212,-1.041015625,18.2177734375,-17.0966796875
0.2125,-4.7646484375,19.9794921875,-15.375
0.213,-7.6875,20.3798828125,-13.1328125
0.2135,-10.890625,20.259765625,-10.009765625
0.214,-14.4140625,19.619140625,-6.0458984375
0.2145,-17.3369140625,18.2177734375,-1.841796875
0.215,-19.37890625,15.9755859375,2.482421875
0.2155,-20.580078125,14.013671875,5.60546875
0.216,-20.9404296875,11.130859375,8.80859375
0.2165,-20.580078125,7.1669921875,12.4921875
0.217,-19.859375,3.283203125,15.6552734375
0.2175,-18.2578125,-0.9208984375,18.2177734375
