wavelength,x,y,z
0.0,3.3232421875,-4.96484375,0.9609375
0.0005,3.4833984375,-4.3642578125,0.1201171875
0.001,3.84375,-4.2041015625,-0.6005859375
0.0015,3.84375,-3.203125,-1.7216796875
0.002,3.9638671875,-2.5625,-2.4423828125
0.0025,3.84375,-1.76171875,-3.203125
0.003,3.5234375,-1.0009765625,-3.7236328125
0.0035,2.962890625,0.0,-4.0439453125
0.004,2.5625,0.7607421875,-4.4443359375
0.0045,1.681640625,1.76171875,-4.564453125
0.005,1.12109375,2.482421875,-4.64453125
0.0055,0.240234375,3.283203125,-4.564453125
0.006,-0.7607421875,3.6435546875,-4.00390625
0.0065,-1.4814453125,4.1240234375,-3.7236328125
0.007,-2.3623046875,4.32421875,-2.9228515625
0.0075,-3.04296875,4.484375,-2.3623046875
0.008,-3.4833984375,4.484375,-1.8017578125
0.0085,-3.8837890625,4.244140625,-1.1611328125
0.009,-4.00390625,3.603515625,-0.3203125
0.0095,-4.32421875,3.3232421875,0.3603515625
0.01,-4.2041015625,2.3623046875,1.44140625
0.0105,-4.2841796875,1.921875,1.9619140625
0.011,-4.1240234375,1.12109375,2.6826171875
0.0115,-3.7236328125,0.400390625,3.04296875
0.012,-3.36328125,-0.48046875,3.4833984375
0.0125,-2.802734375,-1.2412109375,3.7236328125
0.013,-2.08203125,-2.1220703125,3.9638671875
0.0135,-1.44140625,-2.7626953125,3.8837890625
0.014,-0.640625,-3.5634765625,3.84375
0.0145,0.3203125,-3.8837890625,3.2431640625
0.015,0.9609375,-4.404296875,3.123046875
0.0155,1.921875,-4.6044921875,2.2822265625
0.016,2.4423828125,-4.8447265625,1.921875
0.0165,2.9228515625,-4.8046875,1.28125
0.017,3.283203125,-4.564453125,0.560546875
0.0175,3.4833984375,-4.083984375,-0.3603515625
0.018,3.763671875,-3.603515625,-1.041015625
0.0185,3.8037109375,-2.642578125,-2.1220703125
0.019,3.84375,-2.2822265625,-2.642578125
0.0195,3.68359375,-1.361328125,-3.36328125
0.02,3.1630859375,-0.560546875,-3.7236328125
0.0205,2.8427734375,0.2802734375,-4.2041015625
0.021,2.08203125,1.2412109375,-4.4443359375
0.0215,1.4013671875,2.2021484375,-4.6845703125
0.022,0.6806640625,2.802734375,-4.5244140625
0.0225,-0.2802734375,3.4833984375,-4.3642578125
0.023,-1.1611328125,3.84375,-3.7236328125
0.0235,-1.841796875,4.32421875,-3.5234375
0.024,-2.8828125,4.484375,-2.5625
0.0245,-3.3232421875,4.5244140625,-2.1220703125
0.025,-3.8037109375,4.32421875,-1.4013671875
0.0255,-4.083984375,3.9638671875,-0.640625
0.026,-4.244140625,3.443359375,0.2802734375
0.0265,-4.404296875,2.8427734375,1.12109375
0.027,-4.4443359375,1.921875,2.1220703125
0.0275,-4.2041015625,1.4013671875,2.5224609375
0.028,-4.00390625,0.560546875,3.1630859375
0.0285,-3.36328125,-0.3603515625,3.443359375
0.029,-3.04296875,-1.12109375,3.84375
0.0295,-2.1220703125,-2.162109375,3.9638671875
0.03,-1.4814453125,-2.962890625,4.1240234375
0.0305,-0.6005859375,-3.4833984375,3.763671875
0.031,0.240234375,-4.0439453125,3.5234375
0.0315,1.041015625,-4.32421875,2.8828125
0.032,1.681640625,-4.6845703125,2.5625
0.0325,2.6826171875,-4.884765625,1.6416015625
0.033,2.9228515625,-4.8447265625,1.2412109375
0.0335,3.36328125,-4.64453125,0.48046875
0.034,3.5634765625,-4.083984375,-0.3203125
0.0345,3.763671875,-3.5634765625,-1.041015625
0.035,3.8037109375,-2.8427734375,-1.9619140625
0.0355,3.8837890625,-2.1220703125,-2.8427734375
0.036,3.5234375,-1.521484375,-3.1630859375
0.0365,3.36328125,-0.720703125,-3.8037109375
0.037,2.6826171875,0.2001953125,-4.00390625
0.0375,2.40234375,0.9609375,-4.4443359375
0.038,1.4013671875,2.0419921875,-4.5244140625
0.0385,0.9609375,2.642578125,-4.64453125
0.039,0.0,3.203125,-4.244140625
0.0395,-0.8408203125,3.8037109375,-4.00390625
0.04,-1.6416015625,4.0439453125,-3.443359375
0.0405,-2.322265625,4.32421875,-3.04296875
0.041,-3.203125,4.5244140625,-2.2822265625
0.0415,-3.5234375,4.32421875,-1.8017578125
0.042,-3.9638671875,4.2041015625,-1.0009765625
0.0425,-4.1240234375,3.6435546875,-0.2001953125
0.043,-4.3642578125,3.1630859375,0.640625
0.0435,-4.3642578125,2.2822265625,1.6416015625
0.044,-4.484375,1.76171875,2.3623046875
0.0445,-4.00390625,1.0009765625,2.6826171875
0.045,-3.84375,0.240234375,3.36328125
0.0455,-3.123046875,-0.7607421875,3.5634765625
0.046,-2.72265625,-1.521484375,3.9638671875
0.0465,-1.7216796875,-2.642578125,4.083984375
0.047,-1.1611328125,-3.203125,3.9638671875
0.0475,-0.16015625,-3.8037109375,3.5634765625
0.048,0.640625,-4.244140625,3.2431640625
0.0485,1.4013671875,-4.5244140625,2.72265625
0.049,2.162109375,-4.8046875,2.1220703125
0.0495,2.962890625,-5.044921875,1.4013671875
0.05,3.123046875,-4.564453125,0.7607421875
0.0505,3.603515625,-4.4443359375,0.1201171875
0.051,3.6435546875,-3.7236328125,-0.80078125
0.0515,3.84375,-3.2431640625,-1.5615234375
0.052,3.84375,-2.2421875,-2.6025390625
0.0525,3.84375,-1.76171875,-3.1630859375
0.053,3.2431640625,-0.9609375,-3.4833984375
0.0535,3.04296875,-0.16015625,-4.00390625
0.054,2.2822265625,0.7607421875,-4.1640625
0.0545,1.921875,1.521484375,-4.5244140625
0.055,0.9609375,2.5625,-4.64453125
0.0555,0.2802734375,3.04296875,-4.3642578125
0.056,-0.6806640625,3.6435546875,-4.00390625
0.0565,-1.4013671875,3.923828125,-3.5634765625
0.057,-2.08203125,4.1640625,-3.1630859375
0.0575,-2.8828125,4.3642578125,-2.482421875
0.058,-3.5634765625,4.6044921875,-1.8818359375
0.0585,-3.7236328125,4.083984375,-1.1611328125
0.059,-4.1640625,4.00390625,-0.5205078125
0.0595,-4.1640625,3.203125,0.4404296875
0.06,-4.404296875,2.7626953125,1.201171875
0.0605,-4.3642578125,1.76171875,2.2421875
0.061,-4.2841796875,1.28125,2.6025390625
0.0615,-3.8037109375,0.400390625,3.123046875
0.062,-3.4833984375,-0.4404296875,3.603515625
0.0625,-2.8427734375,-1.28125,3.8037109375
0.063,-2.2421875,-2.1220703125,4.083984375
0.0635,-1.3212890625,-3.203125,4.2041015625
0.064,-0.5205078125,-3.603515625,3.763671875
0.0645,0.400390625,-4.32421875,3.5234375
0.065,1.1611328125,-4.564453125,2.962890625
0.0655,1.921875,-4.884765625,2.4423828125
0.066,2.802734375,-5.044921875,1.7216796875
0.0665,3.36328125,-5.044921875,1.041015625
0.067,3.5234375,-4.4443359375,0.2001953125
0.0675,3.923828125,-4.2841796875,-0.5205078125
0.068,3.8837890625,-3.283203125,-1.4814453125
0.0685,4.00390625,-2.7626953125,-2.2822265625
0.069,4.00390625,-1.8017578125,-3.283203125
0.0695,3.6435546875,-1.0810546875,-3.68359375
0.07,3.1630859375,-0.16015625,-4.1640625
0.0705,2.642578125,0.640625,-4.4443359375
0.071,1.921875,1.521484375,-4.564453125
0.0715,1.2412109375,2.40234375,-4.724609375
0.072,0.400390625,3.3232421875,-4.8046875
0.0725,-0.6806640625,3.5634765625,-4.083984375
0.073,-1.3212890625,4.1240234375,-3.923828125
0.0735,-2.2421875,4.2841796875,-3.1630859375
0.074,-2.8427734375,4.5244140625,-2.6025390625
0.0745,-3.603515625,4.64453125,-1.8818359375
0.075,-4.00390625,4.4443359375,-1.201171875
0.0755,-4.1240234375,3.84375,-0.400390625
0.076,-4.3642578125,3.5634765625,0.2802734375
0.0765,-4.3642578125,2.6826171875,1.2412109375
0.077,-4.3642578125,2.08203125,1.921875
0.0775,-4.3642578125,1.28125,2.802734375
0.078,-3.84375,0.560546875,3.04296875
0.0785,-3.5634765625,-0.3203125,3.603515625
0.079,-2.9228515625,-1.0810546875,3.763671875
0.0795,-2.40234375,-1.8818359375,4.00390625
0.08,-1.5615234375,-2.7626953125,4.083984375
0.0805,-0.80078125,-3.5634765625,4.00390625
0.081,0.2001953125,-3.923828125,3.4033203125
0.0815,0.80078125,-4.5244140625,3.3232421875
0.082,1.7216796875,-4.64453125,2.5224609375
0.0825,2.2822265625,-4.884765625,2.1220703125
0.083,3.123046875,-5.044921875,1.361328125
0.0835,3.4033203125,-4.6845703125,0.640625
0.084,3.68359375,-4.2841796875,-0.2001953125
0.0845,3.8837890625,-3.84375,-0.9609375
0.085,3.9638671875,-2.962890625,-1.9619140625
0.0855,3.9638671875,-2.3623046875,-2.642578125
0.086,3.9638671875,-1.5615234375,-3.5634765625
0.0865,3.3232421875,-0.640625,-3.84375
0.087,3.0830078125,0.2001953125,-4.3642578125
0.0875,2.2421875,1.12109375,-4.5244140625
0.088,1.681640625,2.001953125,-4.8046875
0.0885,0.7607421875,2.8427734375,-4.8046875
0.089,0.0,3.5234375,-4.564453125
0.0895,-1.1611328125,3.84375,-3.9638671875
0.09,-1.76171875,4.4443359375,-3.7236328125
0.0905,-2.802734375,4.564453125,-2.72265625
0.091,-3.283203125,4.6845703125,-2.2822265625
0.0915,-3.9638671875,4.724609375,-1.4814453125
0.092,-4.1640625,4.1240234375,-0.6806640625
0.0925,-4.404296875,3.763671875,0.1201171875
0.093,-4.484375,3.04296875,1.0009765625
0.0935,-4.5244140625,2.2021484375,1.921875
0.094,-4.3642578125,1.5615234375,2.5224609375
0.0945,-4.244140625,0.7607421875,3.2431640625
0.095,-3.5234375,-0.240234375,3.443359375
0.0955,-3.283203125,-0.9208984375,3.9638671875
0.096,-2.2822265625,-1.9619140625,4.00390625
0.0965,-1.76171875,-2.7626953125,4.2041015625
0.097,-0.8408203125,-3.5634765625,4.00390625
0.0975,-0.1201171875,-4.0439453125,3.763671875
0.098,0.880859375,-4.3642578125,3.1630859375
0.0985,1.5615234375,-4.724609375,2.802734375
0.099,2.5224609375,-4.8447265625,1.921875
0.0995,2.8427734375,-4.9248046875,1.521484375
0.1,3.4833984375,-4.884765625,0.80078125
0.1005,3.5234375,-4.244140625,0.0
0.101,3.84375,-4.00390625,-0.720703125
0.1015,3.84375,-3.0830078125,-1.76171875
0.102,3.9638671875,-2.4423828125,-2.5625
0.1025,3.763671875,-1.76171875,-3.0830078125
0.103,3.5634765625,-1.0009765625,-3.7236328125
0.1035,2.8828125,0.0,-3.9638671875
0.104,2.6826171875,0.640625,-4.4443359375
0.1045,1.76171875,1.681640625,-4.6044921875
0.105,1.2412109375,2.3623046875,-4.7646484375
0.1055,0.3203125,3.203125,-4.5244140625
0.106,-0.6005859375,3.6435546875,-4.1640625
0.1065,-1.44140625,4.083984375,-3.7236328125
0.107,-2.2021484375,4.4443359375,-3.203125
0.1075,-3.0830078125,4.6044921875,-2.4423828125
0.108,-3.4033203125,4.564453125,-2.001953125
0.1085,-4.00390625,4.484375,-1.28125
0.109,-4.1240234375,3.84375,-0.400390625
0.1095,-4.4443359375,3.5634765625,0.3603515625
0.11,-4.4443359375,2.5224609375,1.4814453125
0.1105,-4.5244140625,2.001953125,2.162109375
0.111,-4.244140625,1.2412109375,2.72265625
0.1115,-4.00390625,0.48046875,3.283203125
0.112,-3.36328125,-0.560546875,3.603515625
0.1125,-3.0029296875,-1.44140625,3.9638671875
0.113,-1.9619140625,-2.5625,4.1240234375
0.1135,-1.28125,-3.1630859375,4.00390625
0.114,-0.400390625,-3.84375,3.8837890625
0.1145,0.5205078125,-4.2041015625,3.4033203125
0.115,1.28125,-4.6044921875,3.0029296875
0.1155,2.162109375,-4.884765625,2.2822265625
0.116,2.9228515625,-5.0849609375,1.5615234375
0.1165,3.1630859375,-4.8046875,1.0009765625
0.117,3.68359375,-4.64453125,0.2802734375
0.1175,3.763671875,-3.923828125,-0.6806640625
0.118,3.9638671875,-3.5634765625,-1.361328125
0.1185,3.9638671875,-2.4423828125,-2.5625
0.119,3.9638671875,-1.9619140625,-3.0830078125
0.1195,3.5634765625,-1.0810546875,-3.603515625
0.12,3.1630859375,-0.2802734375,-4.1240234375
0.1205,2.5625,0.7607421875,-4.244140625
0.121,2.0419921875,1.4013671875,-4.64453125
0.1215,1.0810546875,2.5224609375,-4.8046875
0.122,0.4404296875,3.04296875,-4.564453125
0.1225,-0.560546875,3.763671875,-4.2841796875
0.123,-1.4013671875,4.0439453125,-3.7236328125
0.1235,-2.0419921875,4.404296875,-3.36328125
0.124,-2.962890625,4.5244140625,-2.5625
0.1245,-3.5634765625,4.724609375,-1.9619140625
0.125,-3.8037109375,4.32421875,-1.28125
0.1255,-4.244140625,4.1240234375,-0.6005859375
0.126,-4.2841796875,3.4033203125,0.3603515625
0.1265,-4.484375,3.0029296875,1.0810546875
0.127,-4.4443359375,1.921875,2.2021484375
0.1275,-4.3642578125,1.521484375,2.5224609375
0.128,-4.00390625,0.6005859375,3.1630859375
0.1285,-3.603515625,-0.4404296875,3.443359375
0.129,-3.0029296875,-1.201171875,3.84375
0.1295,-2.322265625,-2.08203125,4.083984375
0.13,-1.521484375,-3.0830078125,4.2841796875
0.1305,-0.720703125,-3.4833984375,3.8837890625
0.131,0.2001953125,-4.1640625,3.7236328125
0.1315,1.041015625,-4.484375,3.0830078125
0.132,1.681640625,-4.8447265625,2.72265625
0.1325,2.6826171875,-5.0048828125,1.841796875
0.133,3.1630859375,-5.0849609375,1.3212890625
0.1335,3.443359375,-4.64453125,0.560546875
0.134,3.84375,-4.404296875,-0.2802734375
0.1345,3.84375,-3.603515625,-1.1611328125
0.135,4.00390625,-3.0830078125,-1.9619140625
0.1355,4.083984375,-2.08203125,-3.0830078125
0.136,3.763671875,-1.521484375,-3.36328125
0.1365,3.4033203125,-0.6005859375,-4.00390625
0.137,2.802734375,0.2802734375,-4.244140625
0.1375,2.2421875,1.0810546875,-4.564453125
0.138,1.44140625,2.1220703125,-4.6845703125
0.1385,0.7607421875,3.0029296875,-4.8447265625
0.139,-0.2802734375,3.4033203125,-4.244140625
0.1395,-1.041015625,4.083984375,-4.083984375
0.14,-1.841796875,4.1640625,-3.36328125
0.1405,-2.482421875,4.484375,-3.0029296875
0.141,-3.443359375,4.64453125,-2.08203125
0.1415,-3.7236328125,4.484375,-1.5615234375
0.142,-4.00390625,4.083984375,-0.80078125
0.1425,-4.244140625,3.7236328125,0.0
0.143,-4.2841796875,2.962890625,0.8408203125
0.1435,-4.32421875,2.322265625,1.6015625
0.144,-4.404296875,1.5615234375,2.5224609375
0.1445,-3.9638671875,0.9609375,2.72265625
0.145,-3.7236328125,0.080078125,3.36328125
0.1455,-3.0830078125,-0.80078125,3.5234375
0.146,-2.6826171875,-1.4814453125,3.8837890625
0.1465,-1.8017578125,-2.5224609375,4.00390625
0.147,-1.1611328125,-3.203125,4.00390625
0.1475,-0.240234375,-3.603515625,3.5234375
0.148,0.5205078125,-4.244140625,3.4033203125
0.1485,1.28125,-4.4443359375,2.72265625
0.149,1.921875,-4.7646484375,2.3623046875
0.1495,2.8828125,-5.0048828125,1.5615234375
0.15,3.123046875,-4.6845703125,1.0009765625
0.1505,3.5234375,-4.4443359375,0.240234375
0.151,3.68359375,-3.9638671875,-0.6005859375
0.1515,3.84375,-3.36328125,-1.44140625
0.152,3.8837890625,-2.5625,-2.3623046875
0.1525,4.00390625,-1.921875,-3.203125
0.153,3.4833984375,-1.1611328125,-3.4833984375
0.1535,3.2431640625,-0.3203125,-4.1640625
0.154,2.482421875,0.6806640625,-4.2841796875
0.1545,2.0419921875,1.44140625,-4.64453125
0.155,1.0810546875,2.5625,-4.7646484375
0.1555,0.3603515625,3.1630859375,-4.6044921875
0.156,-0.6806640625,3.68359375,-4.0439453125
0.1565,-1.361328125,4.1640625,-3.84375
0.157,-2.2421875,4.32421875,-3.0830078125
0.1575,-2.8828125,4.5244140625,-2.5625
0.158,-3.763671875,4.724609375,-1.8017578125
0.1585,-3.8837890625,4.2041015625,-1.041015625
0.159,-4.2841796875,3.9638671875,-0.3603515625
0.1595,-4.244140625,3.203125,0.560546875
0.16,-4.3642578125,2.6025390625,1.361328125
0.1605,-4.32421875,1.76171875,2.2421875
0.161,-4.2841796875,1.0810546875,2.8828125
0.1615,-3.603515625,0.240234375,3.123046875
0.162,-3.4833984375,-0.5205078125,3.68359375
0.1625,-2.642578125,-1.361328125,3.68359375
0.163,-2.162109375,-2.08203125,3.9638671875
0.1635,-1.2412109375,-3.0830078125,4.00390625
0.164,-0.5205078125,-3.5634765625,3.68359375
0.1645,0.4404296875,-4.0439453125,3.283203125
0.165,1.041015625,-4.3642578125,2.962890625
0.1655,1.841796875,-4.564453125,2.322265625
0.166,2.4423828125,-4.7646484375,1.841796875
0.1665,3.123046875,-4.884765625,1.201171875
0.167,3.203125,-4.32421875,0.400390625
0.1675,3.68359375,-4.244140625,-0.2802734375
0.168,3.6435546875,-3.36328125,-1.1611328125
0.1685,3.84375,-2.8828125,-1.9619140625
0.169,3.84375,-2.1220703125,-2.8427734375
0.1695,3.68359375,-1.5615234375,-3.283203125
0.17,3.123046875,-0.560546875,-3.7236328125
0.1705,2.8828125,0.2001953125,-4.1640625
0.171,2.162109375,1.0810546875,-4.3642578125
0.1715,1.6015625,1.921875,-4.64453125
0.172,0.7607421875,2.8427734375,-4.6845703125
0.1725,-0.2001953125,3.283203125,-4.2041015625
0.173,-1.0009765625,3.8837890625,-3.9638671875
0.1735,-1.76171875,4.1640625,-3.4033203125
0.174,-2.5625,4.4443359375,-2.8427734375
0.1745,-3.203125,4.6044921875,-2.2822265625
0.175,-3.8037109375,4.564453125,-1.5615234375
0.1755,-3.923828125,3.9638671875,-0.720703125
0.176,-4.3642578125,3.84375,0.0
0.1765,-4.32421875,2.802734375,1.041015625
0.177,-4.4443359375,2.2421875,1.76171875
0.1775,-4.3642578125,1.4013671875,2.5625
0.178,-4.0439453125,0.720703125,3.04296875
0.1785,-3.5634765625,-0.2802734375,3.4833984375
0.179,-3.123046875,-1.0009765625,3.8037109375
0.1795,-2.2822265625,-1.9619140625,3.9638671875
0.18,-1.6416015625,-2.72265625,4.083984375
0.1805,-0.80078125,-3.5634765625,4.00390625
0.181,0.2001953125,-3.923828125,3.443359375
0.1815,0.880859375,-4.484375,3.203125
0.182,1.8017578125,-4.64453125,2.4423828125
0.1825,2.482421875,-4.8447265625,1.8818359375
0.183,3.04296875,-4.8447265625,1.28125
0.1835,3.443359375,-4.64453125,0.6005859375
0.184,3.5234375,-4.0439453125,-0.3203125
0.1845,3.84375,-3.8037109375,-0.9609375
0.185,3.8037109375,-2.7626953125,-2.0419921875
0.1855,3.84375,-2.322265625,-2.6025390625
0.186,3.68359375,-1.44140625,-3.4033203125
0.1865,3.203125,-0.640625,-3.7236328125
0.187,2.8427734375,0.240234375,-4.1640625
0.1875,2.2421875,1.0009765625,-4.3642578125
0.188,1.5615234375,1.921875,-4.564453125
0.1885,0.880859375,2.6025390625,-4.564453125
0.189,0.0400390625,3.3232421875,-4.4443359375
0.1895,-0.9609375,3.68359375,-3.84375
0.19,-1.5615234375,4.1640625,-3.68359375
0.1905,-2.5224609375,4.3642578125,-2.802734375
0.191,-3.04296875,4.5244140625,-2.40234375
0.1915,-3.5634765625,4.484375,-1.681640625
0.192,-3.8837890625,4.1640625,-1.0009765625
0.1925,-4.1240234375,3.68359375,-0.240234375
0.193,-4.32421875,3.1630859375,0.560546875
0.1935,-4.3642578125,2.2822265625,1.6015625
0.194,-4.3642578125,1.841796875,2.08203125
0.1945,-4.2041015625,1.041015625,2.8828125
0.195,-3.68359375,0.240234375,3.203125
0.1955,-3.36328125,-0.640625,3.7236328125
0.196,-2.6025390625,-1.6015625,3.8837890625
0.1965,-1.9619140625,-2.482421875,4.1240234375
0.197,-1.1611328125,-3.1630859375,3.9638671875
0.1975,-0.3603515625,-3.84375,3.8037109375
0.198,0.6005859375,-4.1640625,3.203125
0.1985,1.28125,-4.64453125,2.962890625
0.199,2.2822265625,-4.8447265625,2.0419921875
0.1995,2.72265625,-4.884765625,1.6416015625
0.2,3.2431640625,-4.8046875,0.9208984375
0.2005,3.5234375,-4.3642578125,0.1201171875
0.201,3.7236328125,-3.923828125,-0.720703125
0.2015,3.84375,-3.2431640625,-1.6015625
0.202,3.8837890625,-2.40234375,-2.6025390625
0.2025,3.7236328125,-1.841796875,-2.962890625
0.203,3.5634765625,-1.0009765625,-3.7236328125
0.2035,2.8828125,-0.16015625,-3.8837890625
0.204,2.5625,0.6806640625,-4.3642578125
0.2045,1.6416015625,1.76171875,-4.5244140625
0.205,1.12109375,2.482421875,-4.6845703125
0.2055,0.240234375,3.0830078125,-4.404296875
0.206,-0.640625,3.6435546875,-4.1240234375
0.2065,-1.4814453125,3.9638671875,-3.5634765625
0.207,-2.1220703125,4.32421875,-3.203125
0.2075,-3.0830078125,4.484375,-2.322265625
0.208,-3.36328125,4.4443359375,-1.9619140625
0.2085,-3.84375,4.2841796875,-1.201171875
0.209,-4.00390625,3.68359375,-0.4404296875
0.2095,-4.2041015625,3.3232421875,0.3603515625
0.21,-4.2841796875,2.482421875,1.28125
0.2105,-4.3642578125,1.921875,2.08203125
0.211,-4.083984375,1.28125,2.5224609375
0.2115,-3.923828125,0.560546875,3.123046875
0.212,-3.283203125,-0.400390625,3.36328125
0.2125,-3.04296875,-1.12109375,3.84375
0.213,-2.001953125,-2.2421875,3.9638671875
0.2135,-1.5615234375,-2.8828125,4.083984375
0.214,-0.6005859375,-3.5634765625,3.763671875
0.2145,0.2802734375,-4.0439453125,3.4833984375
0.215,1.0810546875,-4.404296875,2.962890625
0.2155,1.8017578125,-4.724609375,2.5224609375
0.216,2.6826171875,-4.96484375,1.76171875
0.2165,2.9228515625,-4.8046875,1.2412109375
0.217,3.4833984375,-4.724609375,0.48046875
0.2175,3.6435546875,-4.083984375,-0.400390625
0.218,3.8837890625,-3.7236328125,-1.2412109375
0.2185,3.923828125,-2.642578125,-2.2822265625
0.219,4.0439453125,-2.08203125,-3.0029296875
0.2195,3.603515625,-1.28125,-3.443359375
0.22,3.36328125,-0.48046875,-4.0439453125
0.2205,2.6025390625,0.560546875,-4.2841796875
0.221,2.2421875,1.3212890625,-4.64453125
0.2215,1.201171875,2.5224609375,-4.8447265625
0.222,0.560546875,3.0830078125,-4.6845703125
0.2225,-0.560546875,3.68359375,-4.2841796875
0.223,-1.3212890625,4.1240234375,-3.8837890625
0.2235,-2.08203125,4.404296875,-3.283203125
0.224,-2.8828125,4.6044921875,-2.6025390625
0.2245,-3.7236328125,4.8046875,-1.8818359375
0.225,-3.8837890625,4.244140625,-1.201171875
0.2255,-4.3642578125,4.083984375,-0.48046875
0.226,-4.3642578125,3.3232421875,0.4404296875
0.2265,-4.484375,2.8427734375,1.201171875
0.227,-4.404296875,1.841796875,2.2421875
0.2275,-4.3642578125,1.28125,2.802734375
0.228,-3.84375,0.4404296875,3.123046875
0.2285,-3.5634765625,-0.3603515625,3.6435546875
0.229,-2.8427734375,-1.2412109375,3.8037109375
