wavelength,x,y,z
0.0,-2.2021484375,-2.5625,4.1240234375
0.0005,-1.76171875,-3.04296875,4.083984375
0.001,-0.8408203125,-3.7236328125,3.84375
0.0015,0.0,-4.0439453125,3.36328125
0.002,0.6005859375,-4.3642578125,3.123046875
0.0025,1.6416015625,-4.564453125,2.2822265625
0.003,2.5224609375,-4.7646484375,1.5615234375
0.0035,3.04296875,-4.4443359375,0.80078125
0.004,3.6435546875,-4.3642578125,0.1201171875
0.0045,3.763671875,-3.6435546875,-0.6806640625
0.005,4.083984375,-3.4833984375,-1.1611328125
0.0055,4.1640625,-2.482421875,-2.2421875
0.006,4.2041015625,-1.9619140625,-2.7626953125
0.0065,3.8837890625,-0.9609375,-3.4833984375
0.007,3.5234375,-0.080078125,-3.923828125
0.0075,2.8427734375,0.7607421875,-4.1240234375
0.008,2.482421875,1.521484375,-4.404296875
0.0085,1.5615234375,2.6025390625,-4.6044921875
0.009,0.8408203125,3.0029296875,-4.2841796875
0.0095,-0.080078125,3.763671875,-4.1240234375
0.01,-0.9609375,3.9638671875,-3.4033203125
0.0105,-1.6416015625,4.32421875,-3.04296875
0.011,-2.8427734375,4.484375,-2.001953125
0.0115,-3.7236328125,4.5244140625,-1.2412109375
0.012,-4.1640625,3.9638671875,-0.3203125
0.0125,-4.724609375,3.8837890625,0.400390625
0.013,-4.724609375,3.04296875,1.201171875
0.0135,-4.9248046875,2.6826171875,1.8017578125
0.014,-5.0849609375,1.6015625,3.0029296875
0.0145,-4.8046875,0.80078125,3.4833984375
0.015,-4.404296875,-0.2802734375,4.083984375
0.0155,-3.8837890625,-1.1611328125,4.4443359375
0.016,-3.1630859375,-2.001953125,4.5244140625
0.0165,-2.482421875,-2.8828125,4.6845703125
0.017,-1.521484375,-4.00390625,4.8046875
0.0175,-0.6005859375,-4.32421875,4.083984375
0.018,0.2001953125,-4.884765625,4.00390625
0.0185,1.1611328125,-4.96484375,3.1630859375
0.019,1.8818359375,-5.205078125,2.72265625
0.0195,3.1630859375,-5.28515625,1.5615234375
0.02,3.8837890625,-5.205078125,0.720703125
0.0205,4.2041015625,-4.5244140625,-0.3203125
0.021,4.6845703125,-4.32421875,-0.9609375
0.0215,4.6044921875,-3.4033203125,-1.8017578125
0.022,4.724609375,-2.8828125,-2.40234375
0.0225,4.884765625,-1.8017578125,-3.603515625
0.023,4.32421875,-0.8408203125,-3.9638671875
0.0235,3.9638671875,0.2001953125,-4.564453125
0.024,3.283203125,1.0810546875,-4.8046875
0.0245,2.6025390625,1.8818359375,-4.9248046875
0.025,1.76171875,2.802734375,-5.0048828125
0.0255,0.80078125,3.84375,-5.0849609375
0.026,-0.3203125,4.1240234375,-4.1640625
0.0265,-1.0009765625,4.7646484375,-4.1240234375
0.027,-2.162109375,4.8046875,-3.04296875
0.0275,-2.8427734375,4.96484375,-2.5224609375
0.028,-4.1240234375,5.0048828125,-1.28125
0.0285,-4.8046875,4.7646484375,-0.400390625
0.029,-5.044921875,3.9638671875,0.6005859375
0.0295,-5.4453125,3.7236328125,1.28125
0.03,-5.4052734375,2.6826171875,2.2421875
0.0305,-5.365234375,2.0419921875,2.8427734375
0.031,-5.525390625,0.9609375,4.0439453125
0.0315,-4.724609375,-0.16015625,4.32421875
0.032,-4.3642578125,-1.12109375,4.8447265625
0.0325,-3.5634765625,-2.2021484375,5.0048828125
0.033,-2.7626953125,-3.0029296875,5.0849609375
0.0335,-1.841796875,-3.923828125,5.0048828125
0.034,-0.80078125,-4.8447265625,4.96484375
0.0345,0.2802734375,-4.96484375,3.9638671875
0.035,0.9609375,-5.4853515625,3.8837890625
0.0355,2.2421875,-5.525390625,2.6826171875
0.036,2.802734375,-5.5654296875,2.1220703125
0.0365,4.0439453125,-5.60546875,0.9208984375
0.037,4.5244140625,-5.0849609375,0.0
0.0375,4.7646484375,-4.4443359375,-0.9208984375
0.038,5.044921875,-4.00390625,-1.6015625
0.0385,5.0048828125,-2.962890625,-2.6025390625
0.039,4.884765625,-2.2822265625,-3.1630859375
0.0395,5.0048828125,-1.2412109375,-4.2841796875
0.04,4.0439453125,0.0,-4.484375
0.0405,3.8037109375,0.7607421875,-5.0048828125
0.041,2.802734375,1.841796875,-5.0849609375
0.0415,2.162109375,2.6025390625,-5.1650390625
0.042,1.201171875,3.5234375,-5.0849609375
0.0425,0.1201171875,4.32421875,-4.8447265625
0.043,-0.9609375,4.484375,-3.8837890625
0.0435,-1.6015625,5.0048828125,-3.763671875
0.044,-2.962890625,5.0048828125,-2.4423828125
0.0445,-3.4833984375,5.0048828125,-1.9619140625
0.045,-4.64453125,4.96484375,-0.80078125
0.0455,-4.96484375,4.32421875,0.2001953125
0.046,-5.205078125,3.8037109375,0.9609375
0.0465,-5.4453125,3.1630859375,1.76171875
0.047,-5.4453125,2.2421875,2.6826171875
0.0475,-5.2451171875,1.44140625,3.2431640625
0.048,-5.28515625,0.5205078125,4.244140625
0.0485,-4.2041015625,-0.7607421875,4.404296875
0.049,-4.1240234375,-1.4814453125,4.9248046875
0.0495,-2.9228515625,-2.6826171875,4.9248046875
0.05,-2.40234375,-3.283203125,5.0048828125
0.0505,-1.3212890625,-4.1240234375,4.8046875
0.051,-0.3603515625,-4.8046875,4.484375
0.0515,0.6005859375,-4.96484375,3.68359375
0.052,1.3212890625,-5.4052734375,3.443359375
0.0525,2.5625,-5.4453125,2.2021484375
0.053,3.0830078125,-5.4052734375,1.6416015625
0.0535,4.1240234375,-5.28515625,0.6005859375
0.054,4.32421875,-4.564453125,-0.3603515625
0.0545,4.64453125,-4.2041015625,-1.0009765625
0.055,4.8046875,-3.443359375,-1.921875
0.0555,4.8046875,-2.642578125,-2.72265625
0.056,4.6044921875,-1.8017578125,-3.3232421875
0.0565,4.564453125,-0.9609375,-4.2041015625
0.057,3.5234375,0.2802734375,-4.32421875
0.0575,3.443359375,0.9208984375,-4.8447265625
0.058,2.2421875,2.162109375,-4.8046875
0.0585,1.841796875,2.6826171875,-4.884765625
0.059,0.7607421875,3.5634765625,-4.64453125
0.0595,-0.240234375,4.083984375,-4.2041015625
0.06,-1.12109375,4.2841796875,-3.5634765625
0.0605,-1.921875,4.64453125,-3.0830078125
0.061,-3.04296875,4.64453125,-2.0419921875
0.0615,-3.5234375,4.5244140625,-1.44140625
0.062,-4.3642578125,4.4443359375,-0.5205078125
0.0625,-4.5244140625,3.68359375,0.400390625
0.063,-4.8447265625,3.4833984375,0.9609375
0.0635,-4.884765625,2.5224609375,1.921875
0.064,-5.0048828125,2.001953125,2.5224609375
0.0645,-4.724609375,1.0009765625,3.1630859375
0.065,-4.564453125,0.2001953125,3.8037109375
0.0655,-3.7236328125,-0.8408203125,4.00390625
0.066,-3.603515625,-1.44140625,4.484375
0.0665,-2.5224609375,-2.5625,4.484375
0.067,-2.162109375,-3.0029296875,4.484375
0.0675,-1.1611328125,-3.84375,4.32421875
0.068,-0.2802734375,-4.1640625,3.763671875
0.0685,0.48046875,-4.564453125,3.4833984375
0.069,1.4013671875,-4.7646484375,2.7626953125
0.0695,2.2421875,-4.96484375,2.0419921875
0.07,2.802734375,-4.7646484375,1.361328125
0.0705,3.5234375,-4.6845703125,0.560546875
0.071,3.68359375,-3.9638671875,-0.3203125
0.0715,4.1240234375,-3.923828125,-0.7607421875
0.072,4.1240234375,-2.9228515625,-1.76171875
0.0725,4.32421875,-2.6025390625,-2.2822265625
0.073,4.1240234375,-1.6416015625,-3.0830078125
0.0735,3.84375,-0.7607421875,-3.5634765625
0.074,3.1630859375,0.2001953125,-3.84375
0.0745,2.962890625,0.80078125,-4.2041015625
0.075,2.08203125,1.8818359375,-4.3642578125
0.0755,1.6416015625,2.2822265625,-4.32421875
0.076,0.6806640625,3.123046875,-4.1640625
0.0765,-0.2001953125,3.36328125,-3.5634765625
0.077,-0.80078125,3.84375,-3.4033203125
0.0775,-1.8818359375,3.9638671875,-2.5224609375
0.078,-2.5625,4.1640625,-2.0419921875
0.0785,-3.1630859375,3.923828125,-1.2412109375
0.079,-3.7236328125,3.8037109375,-0.6005859375
0.0795,-3.84375,3.1630859375,0.240234375
0.08,-4.2041015625,3.123046875,0.640625
0.0805,-4.32421875,2.2421875,1.5615234375
0.081,-4.3642578125,1.8017578125,2.001953125
0.0815,-4.244140625,0.9609375,2.802734375
0.082,-3.8037109375,0.1201171875,3.1630859375
0.0825,-3.5634765625,-0.640625,3.603515625
0.083,-3.04296875,-1.361328125,3.763671875
0.0835,-2.5625,-2.1220703125,4.083984375
0.084,-1.921875,-2.6025390625,3.84375
0.0845,-1.201171875,-3.283203125,3.84375
0.085,-0.400390625,-3.5634765625,3.2431640625
0.0855,0.16015625,-4.0439453125,3.2431640625
0.086,1.2412109375,-4.1640625,2.322265625
0.0865,1.76171875,-4.4443359375,2.08203125
0.087,2.40234375,-4.2041015625,1.201171875
0.0875,2.802734375,-4.083984375,0.6806640625
0.088,3.1630859375,-3.7236328125,0.0
0.0885,3.4033203125,-3.5234375,-0.560546875
0.089,3.68359375,-2.9228515625,-1.4013671875
0.0895,3.68359375,-2.40234375,-1.841796875
0.09,3.763671875,-1.6416015625,-2.6826171875
0.0905,3.1630859375,-0.720703125,-2.9228515625
0.091,3.203125,-0.16015625,-3.5634765625
0.0915,2.482421875,0.7607421875,-3.68359375
0.092,2.2822265625,1.4013671875,-4.083984375
0.0925,1.4013671875,2.001953125,-3.84375
0.093,0.7607421875,2.6025390625,-3.8037109375
0.0935,-0.080078125,2.9228515625,-3.283203125
0.094,-0.6806640625,3.443359375,-3.1630859375
0.0945,-1.681640625,3.603515625,-2.322265625
0.095,-2.2021484375,3.763671875,-1.9619140625
0.0955,-2.8828125,3.6435546875,-1.1611328125
0.096,-3.203125,3.283203125,-0.6005859375
0.0965,-3.6435546875,3.123046875,0.0
0.097,-3.763671875,2.5625,0.6806640625
0.0975,-4.083984375,2.2421875,1.4013671875
0.098,-3.8837890625,1.521484375,1.921875
0.0985,-3.923828125,0.8408203125,2.5625
0.099,-3.3232421875,-0.1201171875,2.8828125
0.0995,-3.36328125,-0.6005859375,3.4033203125
0.1,-2.6025390625,-1.4814453125,3.5234375
0.1005,-2.40234375,-1.9619140625,3.763671875
0.101,-1.6015625,-2.5625,3.5234375
0.1015,-1.0009765625,-3.0029296875,3.36328125
0.102,-0.3203125,-3.443359375,3.123046875
0.1025,0.4404296875,-3.7236328125,2.6826171875
0.103,1.28125,-4.0439453125,2.2021484375
0.1035,1.76171875,-4.00390625,1.6416015625
0.104,2.3623046875,-4.00390625,1.12109375
0.1045,2.5625,-3.6435546875,0.400390625
0.105,3.0830078125,-3.68359375,0.0
0.1055,3.203125,-2.962890625,-0.80078125
0.106,3.5634765625,-2.7626953125,-1.3212890625
0.1065,3.36328125,-1.921875,-2.001953125
0.107,3.3232421875,-1.3212890625,-2.5625
0.1075,2.8828125,-0.4404296875,-2.962890625
0.108,2.8427734375,0.1201171875,-3.4033203125
0.1085,2.2421875,1.0009765625,-3.7236328125
0.109,1.921875,1.44140625,-3.763671875
0.1095,1.12109375,2.2421875,-3.7236328125
0.11,0.3603515625,2.5625,-3.36328125
0.1105,-0.2802734375,3.123046875,-3.203125
0.111,-1.201171875,3.3232421875,-2.5625
0.1115,-1.9619140625,3.68359375,-2.162109375
0.112,-2.40234375,3.36328125,-1.6015625
0.1125,-3.04296875,3.4833984375,-1.0009765625
0.113,-3.2431640625,3.0029296875,-0.240234375
0.1135,-3.68359375,2.9228515625,0.3203125
0.114,-3.8837890625,2.2421875,1.1611328125
0.1145,-4.00390625,1.841796875,1.6416015625
0.115,-3.84375,0.9609375,2.40234375
0.1155,-3.5634765625,0.240234375,2.802734375
0.116,-3.2431640625,-0.5205078125,3.203125
0.1165,-2.8828125,-1.201171875,3.4833984375
0.117,-2.40234375,-1.9619140625,3.8037109375
0.1175,-1.76171875,-2.3623046875,3.5234375
0.118,-1.1611328125,-3.04296875,3.5634765625
0.1185,-0.3603515625,-3.283203125,3.04296875
0.119,0.240234375,-3.8037109375,2.9228515625
0.1195,1.28125,-4.00390625,2.1220703125
0.12,1.921875,-4.1240234375,1.76171875
0.1205,2.3623046875,-3.923828125,0.9609375
0.121,2.7626953125,-3.84375,0.48046875
0.1215,3.0830078125,-3.4033203125,-0.2001953125
0.122,3.283203125,-3.123046875,-0.720703125
0.1225,3.6435546875,-2.5625,-1.6015625
0.123,3.4833984375,-1.9619140625,-2.0419921875
0.1235,3.4833984375,-1.201171875,-2.8427734375
0.124,2.9228515625,-0.3603515625,-3.0830078125
0.1245,2.8427734375,0.2802734375,-3.5634765625
0.125,2.162109375,1.1611328125,-3.7236328125
0.1255,1.76171875,1.841796875,-4.00390625
0.126,0.9208984375,2.322265625,-3.603515625
0.1265,0.2802734375,2.9228515625,-3.6435546875
0.127,-0.6005859375,3.1630859375,-3.04296875
0.1275,-1.28125,3.6435546875,-2.7626953125
0.128,-2.4423828125,3.8037109375,-1.8818359375
0.1285,-2.8828125,3.7236328125,-1.3212890625
0.129,-3.4033203125,3.6435546875,-0.48046875
0.1295,-3.763671875,3.2431640625,0.0400390625
0.13,-4.00390625,2.8427734375,0.6806640625
0.1305,-4.1640625,2.2421875,1.44140625
0.131,-4.484375,1.6416015625,2.2822265625
0.1315,-3.9638671875,0.720703125,2.72265625
0.132,-3.923828125,0.0,3.4033203125
0.1325,-3.203125,-0.9609375,3.5634765625
0.133,-3.0029296875,-1.521484375,3.9638671875
0.1335,-2.1220703125,-2.5625,4.083984375
0.134,-1.4814453125,-3.1630859375,4.00390625
0.1345,-0.640625,-3.5634765625,3.5634765625
0.135,0.0,-4.00390625,3.443359375
0.1355,0.880859375,-4.2041015625,2.6826171875
0.136,1.6015625,-4.5244140625,2.2021484375
0.1365,2.72265625,-4.6845703125,1.3212890625
0.137,2.962890625,-4.3642578125,0.560546875
0.1375,3.5234375,-4.083984375,0.0
0.138,3.6435546875,-3.5234375,-0.720703125
0.1385,3.84375,-3.0830078125,-1.3212890625
0.139,3.923828125,-2.322265625,-2.162109375
0.1395,4.083984375,-1.7216796875,-2.9228515625
0.14,3.443359375,-0.6806640625,-3.2431640625
0.1405,3.4033203125,0.0,-3.84375
0.141,2.5625,0.9208984375,-3.923828125
0.1415,2.322265625,1.521484375,-4.2041015625
0.142,1.4013671875,2.6025390625,-4.3642578125
0.1425,0.6005859375,3.0830078125,-4.0439453125
0.143,-0.2001953125,3.5234375,-3.7236328125
0.1435,-1.0009765625,3.923828125,-3.36328125
0.144,-1.8818359375,4.083984375,-2.642578125
0.1445,-2.6826171875,4.2041015625,-2.001953125
0.145,-3.763671875,4.32421875,-1.1611328125
0.1455,-4.00390625,3.763671875,-0.2001953125
0.146,-4.5244140625,3.68359375,0.3603515625
0.1465,-4.6044921875,2.8828125,1.28125
0.147,-4.7646484375,2.40234375,1.921875
0.1475,-4.8447265625,1.4814453125,2.8427734375
0.148,-4.7646484375,0.720703125,3.5234375
0.1485,-4.00390625,-0.4404296875,3.84375
0.149,-3.84375,-1.1611328125,4.404296875
0.1495,-2.8427734375,-2.2421875,4.484375
0.15,-2.40234375,-2.8427734375,4.6044921875
0.1505,-1.361328125,-3.923828125,4.6044921875
0.151,-0.3603515625,-4.2841796875,4.00390625
0.1515,0.3603515625,-4.6845703125,3.68359375
0.152,1.361328125,-5.0849609375,3.0029296875
0.1525,2.2822265625,-5.125,2.162109375
0.153,3.04296875,-5.125,1.4013671875
0.1535,3.9638671875,-5.0849609375,0.48046875
0.154,4.083984375,-4.2041015625,-0.48046875
0.1545,4.484375,-4.1240234375,-1.0009765625
0.155,4.564453125,-3.04296875,-2.08203125
0.1555,4.564453125,-2.5224609375,-2.6025390625
0.156,4.5244140625,-1.5615234375,-3.5234375
0.1565,4.2041015625,-0.6005859375,-4.1240234375
0.157,3.4033203125,0.48046875,-4.32421875
0.1575,3.123046875,1.2412109375,-4.724609375
0.158,2.0419921875,2.3623046875,-4.7646484375
0.1585,1.5615234375,2.8427734375,-4.7646484375
0.159,0.48046875,3.8837890625,-4.724609375
0.1595,-0.6005859375,4.1240234375,-3.923828125
0.16,-1.28125,4.484375,-3.68359375
0.1605,-2.4423828125,4.7646484375,-2.7626953125
0.161,-3.3232421875,4.7646484375,-1.9619140625
0.1615,-4.0439453125,4.64453125,-1.0810546875
0.162,-4.8447265625,4.5244140625,-0.16015625
0.1625,-4.9248046875,3.6435546875,0.80078125
0.163,-5.28515625,3.4833984375,1.361328125
0.1635,-5.3251953125,2.2421875,2.5625
0.164,-5.28515625,1.681640625,3.04296875
0.1645,-5.125,0.6005859375,3.9638671875
0.165,-4.64453125,-0.400390625,4.484375
0.1655,-3.84375,-1.4814453125,4.724609375
0.166,-3.36328125,-2.322265625,5.044921875
0.1665,-2.2021484375,-3.5234375,5.044921875
0.167,-1.6015625,-3.923828125,4.8046875
0.1675,-0.5205078125,-4.884765625,4.64453125
0.168,0.6005859375,-5.125,3.8037109375
0.1685,1.28125,-5.4453125,3.4833984375
0.169,2.5625,-5.6455078125,2.3623046875
0.1695,3.4033203125,-5.525390625,1.5615234375
0.17,4.00390625,-5.205078125,0.6005859375
0.1705,4.724609375,-5.0048828125,-0.3203125
0.171,4.6845703125,-4.00390625,-1.28125
0.1715,5.0048828125,-3.763671875,-1.8017578125
0.172,5.0048828125,-2.4423828125,-3.0830078125
0.1725,4.8046875,-1.8818359375,-3.4833984375
0.173,4.564453125,-0.7607421875,-4.3642578125
0.1735,3.923828125,0.3203125,-4.6845703125
0.174,3.1630859375,1.28125,-4.8447265625
0.1745,2.6025390625,2.162109375,-5.125
0.175,1.521484375,3.2431640625,-5.125
0.1755,0.8408203125,3.6435546875,-4.8046875
0.176,-0.3203125,4.484375,-4.564453125
0.1765,-1.3212890625,4.6044921875,-3.68359375
0.177,-2.001953125,4.9248046875,-3.36328125
0.1775,-3.36328125,5.044921875,-2.1220703125
0.178,-4.1240234375,5.044921875,-1.361328125
0.1785,-4.64453125,4.564453125,-0.3603515625
0.179,-5.28515625,4.2841796875,0.560546875
0.1795,-5.205078125,3.3232421875,1.4013671875
0.18,-5.4453125,2.962890625,2.001953125
0.1805,-5.4853515625,1.76171875,3.2431640625
0.181,-5.205078125,1.0810546875,3.603515625
0.1815,-4.9248046875,0.0,4.4443359375
0.182,-4.1640625,-1.1611328125,4.724609375
0.1825,-3.5634765625,-2.001953125,4.96484375
0.183,-2.72265625,-2.962890625,5.044921875
0.1835,-1.8017578125,-4.00390625,5.0849609375
0.184,-0.9208984375,-4.3642578125,4.484375
0.1845,0.080078125,-5.1650390625,4.32421875
0.185,1.0810546875,-5.205078125,3.36328125
0.1855,1.7216796875,-5.4853515625,3.123046875
0.186,3.0830078125,-5.525390625,1.841796875
0.1865,3.68359375,-5.4453125,1.12109375
0.187,4.244140625,-4.884765625,0.0400390625
0.1875,4.6845703125,-4.5244140625,-0.720703125
0.188,4.724609375,-3.7236328125,-1.5615234375
0.1885,4.8447265625,-3.203125,-2.2021484375
0.189,4.96484375,-2.1220703125,-3.36328125
0.1895,4.5244140625,-1.361328125,-3.6435546875
0.19,4.32421875,-0.3203125,-4.484375
0.1905,3.4033203125,0.7607421875,-4.6044921875
0.191,3.0029296875,1.4814453125,-4.884765625
0.1915,2.0419921875,2.5224609375,-4.9248046875
0.192,1.28125,3.3232421875,-5.0849609375
0.1925,0.2802734375,3.7236328125,-4.404296875
0.193,-0.640625,4.404296875,-4.244140625
0.1935,-1.6015625,4.484375,-3.283203125
0.194,-2.2421875,4.8046875,-2.9228515625
0.1945,-3.603515625,4.8447265625,-1.681640625
0.195,-4.0439453125,4.6044921875,-1.0009765625
0.1955,-4.64453125,4.1640625,0.0400390625
0.196,-4.96484375,3.68359375,0.80078125
0.1965,-5.0048828125,3.04296875,1.4814453125
0.197,-5.0849609375,2.3623046875,2.2421875
0.1975,-5.2451171875,1.521484375,3.2431640625
0.198,-4.64453125,0.560546875,3.5234375
0.1985,-4.484375,-0.3603515625,4.2841796875
0.199,-3.5634765625,-1.44140625,4.3642578125
0.1995,-3.283203125,-2.001953125,4.64453125
0.2,-2.2421875,-3.1630859375,4.6044921875
0.2005,-1.6015625,-3.763671875,4.6044921875
0.201,-0.560546875,-4.1640625,3.9638671875
0.2015,0.2001953125,-4.64453125,3.84375
0.202,1.0810546875,-4.724609375,3.04296875
0.2025,1.76171875,-5.0048828125,2.6025390625
0.203,2.962890625,-5.125,1.521484375
0.2035,3.2431640625,-4.7646484375,0.880859375
0.204,3.8837890625,-4.5244140625,0.0
0.2045,4.00390625,-3.8837890625,-0.720703125
0.205,4.2841796875,-3.5234375,-1.28125
0.2055,4.2841796875,-2.72265625,-2.08203125
0.206,4.484375,-2.08203125,-2.8828125
0.2065,3.84375,-1.12109375,-3.2431640625
0.207,3.8037109375,-0.3203125,-3.923828125
0.2075,2.9228515625,0.6806640625,-4.0439453125
0.208,2.802734375,1.201171875,-4.4443359375
0.2085,1.76171875,2.2822265625,-4.5244140625
0.209,1.28125,2.72265625,-4.404296875
0.2095,0.240234375,3.36328125,-3.9638671875
0.21,-0.5205078125,3.8037109375,-3.6435546875
0.2105,-1.3212890625,4.00390625,-3.0830078125
0.211,-2.1220703125,4.2041015625,-2.5224609375
0.2115,-3.203125,4.4443359375,-1.6416015625
0.212,-3.4833984375,3.8837890625,-0.8408203125
0.2125,-4.1640625,3.84375,-0.16015625
0.213,-4.2041015625,3.1630859375,0.6005859375
0.2135,-4.5244140625,2.8828125,1.12109375
0.214,-4.5244140625,1.9619140625,2.0419921875
0.2145,-4.6044921875,1.44140625,2.6826171875
0.215,-4.0439453125,0.400390625,3.1630859375
0.2155,-3.923828125,-0.3203125,3.68359375
0.216,-3.203125,-1.28125,3.8037109375
0.2165,-2.962890625,-1.841796875,4.083984375
0.217,-2.08203125,-2.8427734375,4.1640625
0.2175,-1.44140625,-3.0830078125,3.84375
0.218,-0.6806640625,-3.7236328125,3.7236328125
0.2185,0.080078125,-3.923828125,3.203125
0.219,0.7607421875,-4.244140625,2.8828125
0.2195,1.6416015625,-4.3642578125,2.1220703125
0.22,2.40234375,-4.5244140625,1.5615234375
0.2205,2.6826171875,-4.0439453125,0.7607421875
0.221,3.203125,-4.1240234375,0.3203125
0.2215,3.3232421875,-3.4833984375,-0.48046875
0.222,3.68359375,-3.283203125,-0.9208984375
0.2225,3.84375,-2.5224609375,-1.8818359375
0.223,3.763671875,-2.0419921875,-2.2822265625
0.2235,3.4833984375,-1.0810546875,-2.8828125
0.224,3.1630859375,-0.48046875,-3.2431640625
0.2245,2.8427734375,0.3203125,-3.6435546875
0.225,2.40234375,0.9609375,-3.8837890625
0.2255,1.921875,1.841796875,-4.1640625
0.226,1.12109375,2.2021484375,-3.7236328125
0.2265,0.48046875,2.8828125,-3.8037109375
0.227,-0.400390625,3.1630859375,-3.1630859375
0.2275,-1.0009765625,3.603515625,-3.0029296875
0.228,-2.001953125,3.763671875,-2.162109375
0.2285,-2.5625,3.84375,-1.76171875
0.229,-3.04296875,3.5234375,-0.880859375
0.2295,-3.4833984375,3.4833984375,-0.4404296875
