wavelength,x,y,z
0.0,-13.688354492188,-8.2030029296875,20.985473632812
0.0005,-10.044799804688,-11.406127929688,20.745239257812
0.001,-5.6405029296875,-15.049682617188,20.064575195312
0.0015,-1.2362060546875,-17.932495117188,18.703247070312
0.002,3.4483642578125,-19.854370117188,16.340942382812
0.0025,6.3311767578125,-20.374877929688,14.218872070312
0.003,9.6544189453125,-20.655151367188,11.416137695312
0.0035,13.057739257812,-20.334838867188,7.8927001953125
0.004,16.340942382812,-19.253784179688,3.6885986328125
0.0045,18.863403320312,-17.492065429688,-0.6356201171875
0.005,20.505004882812,-15.329956054688,-4.3192138671875
0.0055,20.825317382812,-12.687377929688,-7.4022216796875
0.006,20.785278320312,-9.1639404296875,-10.845581054688
0.0065,20.304809570312,-5.1600341796875,-14.369018554688
0.007,19.423950195312,-1.3563232421875,-17.452026367188
0.0075,17.421997070312,2.8477783203125,-19.574096679688
0.008,15.099731445312,5.9307861328125,-20.454956054688
0.0085,12.377075195312,9.2540283203125,-21.015502929688
0.009,8.2930908203125,12.777465820312,-20.655151367188
0.0095,3.8487548828125,16.140747070312,-19.614135742188
0.01,-0.6356201171875,18.663208007812,-17.932495117188
0.0105,-4.7596435546875,20.384887695312,-15.770385742188
0.011,-7.6424560546875,20.545043945312,-13.328002929688
0.0115,-10.925659179688,20.625122070312,-10.285034179688
0.012,-14.489135742188,20.024536132812,-6.3612060546875
0.0125,-17.452026367188,18.703247070312,-2.2371826171875
0.013,-19.734252929688,16.621215820312,2.0870361328125
0.0135,-20.775268554688,14.338989257812,5.3702392578125
0.014,-21.015502929688,11.456176757812,8.6134033203125
0.0145,-20.815307617188,7.6524658203125,12.216918945312
0.015,-20.054565429688,3.5684814453125,15.540161132812
0.0155,-18.893432617188,-0.4754638671875,18.382934570312
0.016,-16.811401367188,-4.3992919921875,20.304809570312
0.0165,-14.328979492188,-7.2020263671875,20.745239257812
0.017,-11.446166992188,-10.565307617188,21.105590820312
0.0175,-7.0418701171875,-14.248901367188,20.585083007812
0.018,-2.4373779296875,-17.211791992188,19.223754882812
0.0185,2.0469970703125,-19.293823242188,17.141723632812
0.019,5.6104736328125,-20.655151367188,15.139770507812
0.0195,8.6134033203125,-20.695190429688,12.457153320312
0.02,11.896606445312,-20.494995117188,9.0938720703125
0.0205,15.380004882812,-19.814331054688,5.1300048828125
0.021,18.142700195312,-18.332885742188,0.8858642578125
0.0215,20.144653320312,-16.010620117188,-3.2781982421875
0.022,20.665161132812,-13.528198242188,-6.2811279296875
0.0225,20.945434570312,-10.525268554688,-9.6043701171875
0.023,20.505004882812,-6.4012451171875,-13.448120117188
0.0235,19.704223632812,-2.6375732421875,-16.370971679688
0.024,18.102661132812,1.4063720703125,-18.653198242188
0.0245,16.060668945312,5.0899658203125,-20.494995117188
0.025,13.137817382812,8.0128173828125,-20.535034179688
0.0255,10.054809570312,11.255981445312,-20.695190429688
0.026,5.4903564453125,15.059692382812,-20.054565429688
0.0265,0.8858642578125,17.902465820312,-18.573120117188
0.027,-3.3182373046875,19.584106445312,-16.370971679688
0.0275,-6.4012451171875,20.464965820312,-14.328979492188
0.028,-9.6444091796875,20.545043945312,-11.486206054688
0.0285,-13.087768554688,20.024536132812,-7.6424560546875
0.029,-16.050659179688,19.143676757812,-3.9989013671875
0.0295,-18.733276367188,17.341918945312,0.4454345703125
0.03,-20.374877929688,15.139770507812,4.2891845703125
0.0305,-20.535034179688,12.377075195312,7.1719970703125
0.031,-20.775268554688,9.2940673828125,10.495239257812
0.0315,-20.214721679688,4.8497314453125,14.419067382812
0.032,-19.253784179688,1.1260986328125,17.301879882812
0.0325,-17.371948242188,-2.7176513671875,19.263793945312
0.033,-15.450073242188,-6.1209716796875,20.665161132812
0.0335,-12.447143554688,-9.1239013671875,20.785278320312
0.034,-8.6834716796875,-12.567260742188,20.585083007812
0.0345,-4.4393310546875,-15.850463867188,19.784301757812
0.035,0.4854736328125,-18.653198242188,17.942504882812
0.0355,4.4093017578125,-20.214721679688,15.780395507812
0.036,7.3321533203125,-20.494995117188,13.458129882812
0.0365,10.535278320312,-20.775268554688,10.735473632812
0.037,14.379028320312,-20.094604492188,6.2110595703125
0.0375,17.181762695312,-18.933471679688,2.5274658203125
0.038,19.463989257812,-16.971557617188,-1.7166748046875
0.0385,20.865356445312,-14.689331054688,-5.3201904296875
0.039,20.825317382812,-11.646362304688,-8.4031982421875
0.0395,20.905395507812,-8.2030029296875,-12.006713867188
0.04,20.224731445312,-3.9989013671875,-15.450073242188
0.0405,18.943481445312,0.2452392578125,-18.372924804688
0.041,16.741333007812,3.8487548828125,-19.974487304688
0.0415,14.499145507812,7.0518798828125,-20.855346679688
0.042,11.416137695312,10.335083007812,-21.135620117188
0.0425,6.6114501953125,14.298950195312,-20.454956054688
0.043,2.7276611328125,16.981567382812,-19.453979492188
0.0435,-2.0770263671875,19.423950195312,-17.331909179688
0.044,-5.8006591796875,20.745239257812,-15.169799804688
0.0445,-8.6834716796875,20.585083007812,-12.327026367188
0.045,-12.006713867188,20.785278320312,-9.5643310546875
0.0455,-15.770385742188,19.784301757812,-4.8797607421875
0.046,-18.412963867188,18.182739257812,-0.7156982421875
0.0465,-20.174682617188,16.060668945312,3.1280517578125
0.047,-21.135620117188,13.618286132812,6.4512939453125
0.0475,-21.015502929688,10.295043945312,9.6944580078125
0.048,-20.695190429688,6.2110595703125,13.618286132812
0.0485,-19.854370117188,2.6075439453125,16.541137695312
0.049,-18.412963867188,-1.7567138671875,19.223754882812
0.0495,-16.130737304688,-5.4403076171875,20.665161132812
0.05,-13.448120117188,-8.2430419921875,20.945434570312
0.0505,-10.565307617188,-11.446166992188,21.305786132812
0.051,-5.2401123046875,-15.530151367188,20.184692382812
0.0515,-0.9959716796875,-18.092651367188,18.703247070312
0.052,3.1680908203125,-19.894409179688,16.661254882812
0.0525,6.6915283203125,-20.895385742188,14.499145507812
0.053,9.7344970703125,-20.655151367188,11.255981445312
0.0535,13.097778320312,-20.414916992188,7.9727783203125
0.054,16.380981445312,-19.534057617188,3.9288330078125
0.0545,19.023559570312,-17.612182617188,-0.6356201171875
0.055,20.424926757812,-15.410034179688,-4.2391357421875
0.0555,20.865356445312,-12.807495117188,-7.3221435546875
0.056,20.945434570312,-9.6844482421875,-10.485229492188
0.0565,20.304809570312,-4.8397216796875,-14.569213867188
0.057,19.343872070312,-1.5164794921875,-17.171752929688
0.0575,17.662231445312,2.4473876953125,-19.373901367188
0.058,15.380004882812,6.0509033203125,-20.735229492188
0.0585,12.096801757812,9.0137939453125,-20.535034179688
0.059,9.0137939453125,12.337036132812,-20.815307617188
0.0595,4.0889892578125,16.060668945312,-19.774291992188
0.06,-0.6756591796875,18.583129882812,-17.812377929688
0.0605,-4.2391357421875,19.864379882812,-15.890502929688
0.061,-7.4822998046875,20.665161132812,-13.568237304688
0.0615,-10.605346679688,20.464965820312,-10.445190429688
0.062,-14.248901367188,19.744262695312,-6.2811279296875
0.0625,-16.971557617188,18.623168945312,-2.8377685546875
0.063,-19.253784179688,16.661254882812,1.6466064453125
0.0635,-20.454956054688,14.338989257812,5.0499267578125
0.064,-20.494995117188,11.416137695312,8.1729736328125
0.0645,-20.695190429688,8.3731689453125,11.376098632812
0.065,-20.014526367188,3.6885986328125,15.380004882812
0.0655,-18.613159179688,-0.2752685546875,17.942504882812
0.066,-16.731323242188,-3.7186279296875,19.584106445312
0.0665,-14.689331054688,-6.9617919921875,20.825317382812
0.067,-11.245971679688,-10.084838867188,20.625122070312
0.0675,-7.3221435546875,-13.648315429688,20.344848632812
0.068,-2.9578857421875,-16.731323242188,19.343872070312
0.0685,1.9268798828125,-19.173706054688,17.101684570312
0.069,5.1700439453125,-20.174682617188,15.059692382812
0.0695,8.2930908203125,-20.494995117188,12.457153320312
0.07,11.416137695312,-20.494995117188,9.6544189453125
0.0705,15.380004882812,-19.614135742188,4.8096923828125
0.071,17.902465820312,-18.132690429688,1.0860595703125
0.0715,19.744262695312,-16.170776367188,-2.8377685546875
0.072,20.625122070312,-13.848510742188,-6.1209716796875
0.0725,20.505004882812,-10.405151367188,-9.2840576171875
0.073,20.464965820312,-6.8817138671875,-12.847534179688
0.0735,19.784301757812,-2.8778076171875,-16.170776367188
0.074,18.062622070312,1.4464111328125,-18.733276367188
0.0745,15.900512695312,4.7696533203125,-19.894409179688
0.075,13.498168945312,7.9327392578125,-20.775268554688
0.0755,10.174926757812,11.095825195312,-20.735229492188
0.076,5.2501220703125,15.059692382812,-19.854370117188
0.0765,1.2862548828125,17.622192382812,-18.693237304688
0.077,-3.2381591796875,19.664184570312,-16.491088867188
0.0775,-6.4012451171875,20.424926757812,-14.248901367188
0.078,-9.6444091796875,20.344848632812,-11.205932617188
0.0785,-12.767456054688,20.184692382812,-8.3231201171875
0.079,-16.250854492188,19.143676757812,-3.7987060546875
0.0795,-18.773315429688,17.021606445312,0.6055908203125
0.08,-20.134643554688,15.179809570312,4.0089111328125
0.0805,-20.855346679688,12.657348632812,7.3321533203125
0.081,-20.615112304688,9.2540283203125,10.455200195312
0.0815,-20.214721679688,4.9698486328125,14.258911132812
0.082,-19.373901367188,1.3663330078125,17.141723632812
0.0825,-17.612182617188,-2.8377685546875,19.504028320312
0.083,-15.249877929688,-6.0408935546875,20.464965820312
0.0835,-12.487182617188,-9.1239013671875,20.825317382812
0.084,-9.1639404296875,-12.286987304688,20.945434570312
0.0845,-3.9588623046875,-16.170776367188,19.544067382812
0.085,0.4854736328125,-18.573120117188,17.782348632812
0.0855,4.1690673828125,-20.054565429688,15.820434570312
0.086,7.3721923828125,-20.655151367188,13.498168945312
0.0865,10.695434570312,-20.454956054688,10.134887695312
0.087,14.018676757812,-20.014526367188,6.5313720703125
0.0875,16.941528320312,-19.013549804688,2.5274658203125
0.088,19.423950195312,-16.651245117188,-1.9969482421875
0.0885,20.344848632812,-14.569213867188,-5.1199951171875
0.089,20.785278320312,-11.686401367188,-8.2830810546875
0.0895,20.625122070312,-8.3231201171875,-11.566284179688
0.09,19.864379882812,-3.8387451171875,-15.249877929688
0.0905,18.623168945312,-0.1551513671875,-17.812377929688
0.091,16.821411132812,3.6885986328125,-19.774291992188
0.0915,14.379028320312,6.8917236328125,-20.535034179688
0.092,11.055786132812,10.054809570312,-20.575073242188
0.0925,7.3321533203125,13.578247070312,-20.494995117188
0.093,2.6075439453125,16.861450195312,-19.213745117188
0.0935,-2.1571044921875,19.023559570312,-16.851440429688
0.094,-5.2000732421875,20.064575195312,-15.009643554688
0.0945,-8.4031982421875,20.464965820312,-12.607299804688
0.095,-11.686401367188,20.184692382812,-9.2440185546875
0.0955,-15.049682617188,19.343872070312,-5.1199951171875
0.096,-17.812377929688,18.062622070312,-1.2362060546875
0.0965,-19.774291992188,15.940551757812,3.0479736328125
0.097,-20.414916992188,13.418090820312,5.9708251953125
0.0975,-20.615112304688,10.335083007812,9.2940673828125
0.098,-20.454956054688,6.6915283203125,12.817504882812
0.0985,-19.694213867188,2.5274658203125,16.220825195312
0.099,-17.972534179688,-1.5565185546875,18.583129882812
0.0995,-16.010620117188,-4.8397216796875,20.144653320312
0.1,-13.648315429688,-7.9627685546875,20.865356445312
0.1005,-10.204956054688,-11.286010742188,20.585083007812
0.101,-5.8406982421875,-14.769409179688,19.984497070312
0.1015,-1.3162841796875,-17.692260742188,18.663208007812
0.102,3.3282470703125,-19.694213867188,16.340942382812
0.1025,6.2110595703125,-20.334838867188,14.218872070312
0.103,9.4542236328125,-20.655151367188,11.536254882812
0.1035,12.817504882812,-20.294799804688,7.9727783203125
0.104,16.180786132812,-19.213745117188,3.7686767578125
0.1045,18.583129882812,-17.652221679688,-0.4354248046875
0.105,20.424926757812,-15.410034179688,-4.1990966796875
0.1055,20.785278320312,-12.727416992188,-7.2420654296875
0.106,20.745239257812,-9.2840576171875,-10.645385742188
0.1065,20.344848632812,-5.3201904296875,-14.248901367188
0.107,19.504028320312,-1.3963623046875,-17.371948242188
0.1075,17.462036132812,2.8477783203125,-19.494018554688
0.108,15.219848632812,5.9307861328125,-20.374877929688
0.1085,12.497192382812,9.1339111328125,-21.135620117188
0.109,8.4132080078125,12.777465820312,-20.695190429688
0.1095,3.9688720703125,16.060668945312,-19.734252929688
0.11,-0.5955810546875,18.703247070312,-18.052612304688
0.1105,-4.7596435546875,20.424926757812,-15.890502929688
0.111,-7.6824951171875,20.625122070312,-13.448120117188
0.1115,-11.005737304688,20.705200195312,-10.525268554688
0.112,-14.569213867188,20.144653320312,-6.3612060546875
0.1125,-17.532104492188,18.903442382812,-2.2371826171875
0.113,-19.814331054688,16.781372070312,2.0469970703125
0.1135,-21.015502929688,14.539184570312,5.4903564453125
0.114,-21.255737304688,11.536254882812,8.6934814453125
0.1145,-21.095581054688,7.7325439453125,12.417114257812
0.115,-20.334838867188,3.7286376953125,15.740356445312
0.1155,-19.213745117188,-0.5155029296875,18.663208007812
0.116,-17.011596679688,-4.4793701171875,20.625122070312
0.1165,-14.409057617188,-7.3621826171875,21.025512695312
0.117,-11.566284179688,-10.645385742188,21.465942382812
0.1175,-7.0418701171875,-14.449096679688,20.825317382812
0.118,-2.5174560546875,-17.452026367188,19.504028320312
0.1185,2.0870361328125,-19.654174804688,17.341918945312
0.119,5.8907470703125,-21.095581054688,15.299926757812
0.1195,8.8135986328125,-21.095581054688,12.497192382812
0.12,12.216918945312,-20.895385742188,9.2540283203125
0.1205,15.660278320312,-20.214721679688,5.0899658203125
0.121,18.703247070312,-18.533081054688,0.7257080078125
0.1215,20.625122070312,-16.290893554688,-3.5184326171875
0.122,21.265747070312,-13.808471679688,-6.6414794921875
0.1225,21.505981445312,-10.645385742188,-10.004760742188
0.123,20.985473632812,-6.4012451171875,-13.968627929688
0.1235,20.184692382812,-2.5574951171875,-16.771362304688
0.124,18.543090820312,1.5665283203125,-19.494018554688
0.1245,16.300903320312,5.4903564453125,-21.095581054688
0.125,13.378051757812,8.4532470703125,-21.135620117188
0.1255,10.214965820312,11.696411132812,-21.335815429688
0.126,5.3302001953125,15.660278320312,-20.575073242188
0.1265,0.6856689453125,18.463012695312,-18.973510742188
0.127,-3.6385498046875,20.184692382812,-16.771362304688
0.1275,-6.9217529296875,21.145629882812,-14.609252929688
0.128,-10.124877929688,21.145629882812,-11.526245117188
0.1285,-13.728393554688,20.665161132812,-7.6824951171875
0.129,-16.731323242188,19.744262695312,-3.9188232421875
0.1295,-19.534057617188,17.822387695312,0.7257080078125
0.13,-21.175659179688,15.500122070312,4.6895751953125
0.1305,-21.415893554688,12.657348632812,7.6925048828125
0.131,-21.616088867188,9.4542236328125,11.095825195312
0.1315,-20.935424804688,4.7296142578125,15.299926757812
0.132,-19.894409179688,0.9259033203125,18.142700195312
0.1325,-18.012573242188,-2.9979248046875,20.104614257812
0.133,-15.890502929688,-6.6014404296875,21.586059570312
0.1335,-12.647338867188,-9.6444091796875,21.465942382812
0.134,-8.9237060546875,-13.127807617188,21.305786132812
0.1345,-4.3592529296875,-16.611206054688,20.344848632812
0.135,0.7257080078125,-19.494018554688,18.342895507812
0.1355,4.7296142578125,-20.855346679688,16.020629882812
0.136,7.6925048828125,-21.215698242188,13.738403320312
0.1365,11.055786132812,-21.335815429688,10.735473632812
0.137,14.939575195312,-20.454956054688,6.1710205078125
0.1375,17.662231445312,-19.293823242188,2.4874267578125
0.138,20.024536132812,-17.251831054688,-1.9168701171875
0.1385,21.425903320312,-14.929565429688,-5.7205810546875
0.139,21.305786132812,-11.686401367188,-8.6834716796875
0.1395,21.385864257812,-8.3231201171875,-12.246948242188
0.14,20.585083007812,-3.9188232421875,-16.010620117188
0.1405,19.263793945312,0.3253173828125,-18.733276367188
0.141,17.021606445312,3.9688720703125,-20.334838867188
0.1415,14.739379882812,7.2921142578125,-21.295776367188
0.142,11.416137695312,10.495239257812,-21.415893554688
0.1425,6.8917236328125,14.379028320312,-20.775268554688
0.143,2.8878173828125,17.261840820312,-19.734252929688
0.1435,-2.0770263671875,19.664184570312,-17.612182617188
0.144,-5.7606201171875,20.985473632812,-15.410034179688
0.1445,-8.9237060546875,20.865356445312,-12.607299804688
0.145,-11.926635742188,21.065551757812,-9.8045654296875
0.1455,-15.930541992188,19.984497070312,-4.9998779296875
0.146,-18.533081054688,18.422973632812,-0.8358154296875
0.1465,-20.334838867188,16.300903320312,3.0479736328125
0.147,-21.415893554688,13.818481445312,6.4512939453125
0.1475,-21.215698242188,10.455200195312,9.7745361328125
0.148,-21.055541992188,6.4913330078125,13.578247070312
0.1485,-20.374877929688,2.6475830078125,16.701293945312
0.149,-18.693237304688,-1.7166748046875,19.504028320312
0.1495,-16.290893554688,-5.4002685546875,20.825317382812
0.15,-13.768432617188,-8.3231201171875,21.265747070312
0.1505,-10.845581054688,-11.566284179688,21.586059570312
0.151,-5.4002685546875,-15.730346679688,20.505004882812
0.1515,-1.2362060546875,-18.252807617188,19.063598632812
0.152,3.2081298828125,-20.214721679688,16.901489257812
0.1525,6.7315673828125,-21.375854492188,14.739379882812
0.153,9.8946533203125,-21.015502929688,11.496215820312
0.1535,13.137817382812,-20.895385742188,8.2930908203125
0.154,16.701293945312,-19.934448242188,3.9288330078125
0.1545,19.343872070312,-17.972534179688,-0.7156982421875
0.155,20.785278320312,-15.690307617188,-4.2391357421875
0.1555,21.465942382812,-13.047729492188,-7.5623779296875
0.156,21.385864257812,-9.6844482421875,-10.725463867188
0.1565,20.745239257812,-5.0399169921875,-14.969604492188
0.157,19.864379882812,-1.5164794921875,-17.612182617188
0.1575,17.982543945312,2.6075439453125,-19.894409179688
0.158,15.580200195312,6.2510986328125,-21.175659179688
0.1585,12.417114257812,9.3341064453125,-21.055541992188
0.159,9.2540283203125,12.617309570312,-21.335815429688
0.1595,3.9688720703125,16.541137695312,-20.214721679688
0.16,-0.6756591796875,19.143676757812,-18.212768554688
0.1605,-4.3992919921875,20.464965820312,-16.210815429688
0.161,-7.7625732421875,21.305786132812,-13.928588867188
0.1615,-11.045776367188,20.945434570312,-10.565307617188
0.162,-14.649291992188,20.344848632812,-6.4012451171875
0.1625,-17.652221679688,19.263793945312,-2.7176513671875
0.163,-20.014526367188,17.101684570312,1.9268798828125
0.1635,-21.095581054688,14.739379882812,5.3702392578125
0.164,-21.295776367188,11.776489257812,8.6534423828125
0.1645,-21.295776367188,8.5333251953125,11.856567382812
0.165,-20.494995117188,3.6485595703125,15.940551757812
0.1655,-19.093627929688,-0.3153076171875,18.543090820312
0.166,-17.211791992188,-3.8787841796875,20.344848632812
0.1665,-14.969604492188,-7.4022216796875,21.505981445312
0.167,-11.406127929688,-10.565307617188,21.185668945312
0.1675,-7.5623779296875,-14.128784179688,20.985473632812
0.168,-2.9178466796875,-17.452026367188,19.864379882812
0.1685,2.0469970703125,-19.894409179688,17.542114257812
0.169,5.4903564453125,-20.775268554688,15.420043945312
0.1695,8.7335205078125,-21.295776367188,12.857543945312
0.17,12.016723632812,-21.135620117188,9.6544189453125
0.1705,15.860473632812,-20.014526367188,4.8897705078125
0.171,18.543090820312,-18.733276367188,1.0059814453125
0.1715,20.545043945312,-16.611206054688,-3.1580810546875
0.172,21.425903320312,-14.048706054688,-6.4813232421875
0.1725,21.265747070312,-10.605346679688,-9.8045654296875
0.173,21.105590820312,-7.0819091796875,-13.287963867188
0.1735,20.344848632812,-2.8377685546875,-16.851440429688
0.174,18.543090820312,1.6466064453125,-19.333862304688
0.1745,16.421020507812,5.0098876953125,-20.615112304688
0.175,13.898559570312,8.2930908203125,-21.536010742188
0.1755,10.174926757812,11.576293945312,-21.295776367188
0.176,5.4102783203125,15.540161132812,-20.414916992188
0.1765,1.1260986328125,18.262817382812,-19.213745117188
0.177,-3.5584716796875,20.424926757812,-16.811401367188
0.1775,-6.7615966796875,20.985473632812,-14.609252929688
0.178,-10.204956054688,20.985473632812,-11.526245117188
