wavelength,x,y,z
0.0,-25.940307617188,5.7706298828125,19.504028320312
0.0005,-23.658081054688,0.4854736328125,22.426879882812
0.001,-21.415893554688,-4.1990966796875,24.749145507812
0.0015,-17.572143554688,-9.1639404296875,25.710083007812
0.002,-12.807495117188,-15.329956054688,27.191528320312
0.0025,-8.4832763671875,-18.252807617188,25.790161132812
0.003,-3.9188232421875,-21.656127929688,24.629028320312
0.0035,0.9259033203125,-23.377807617188,21.706176757812
0.004,6.2110595703125,-25.820190429688,18.983520507812
0.0045,11.576293945312,-26.020385742188,13.978637695312
0.005,17.021606445312,-26.620971679688,9.2540283203125
0.0055,19.463989257812,-25.700073242188,6.0909423828125
0.006,23.027465820312,-23.938354492188,0.8057861328125
0.0065,24.669067382812,-21.015502929688,-3.7586669921875
0.007,25.990356445312,-17.452026367188,-8.6033935546875
0.0075,26.791137695312,-12.727416992188,-14.168823242188
0.008,25.750122070312,-8.0428466796875,-17.852416992188
0.0085,25.269653320312,-4.6395263671875,-20.775268554688
0.009,22.747192382812,0.5255126953125,-23.297729492188
0.0095,20.304809570312,5.5704345703125,-25.900268554688
0.01,15.380004882812,10.735473632812,-25.980346679688
0.0105,11.055786132812,16.421020507812,-27.261596679688
0.011,6.8516845703125,18.983520507812,-25.660034179688
0.0115,1.8868408203125,22.306762695312,-24.058471679688
0.012,-3.0780029296875,23.828247070312,-20.815307617188
0.0125,-8.0828857421875,25.790161132812,-17.932495117188
0.013,-13.808471679688,25.870239257812,-12.487182617188
0.0135,-17.972534179688,25.670043945312,-8.3231201171875
0.014,-20.615112304688,24.869262695312,-4.8797607421875
0.0145,-23.618041992188,22.667114257812,0.2852783203125
0.015,-25.339721679688,19.463989257812,5.1700439453125
0.0155,-25.940307617188,15.339965820312,9.9346923828125
0.016,-26.821166992188,10.855590820312,15.299926757812
0.0165,-25.419799804688,6.3311767578125,18.382934570312
0.017,-24.619018554688,2.4473876953125,21.425903320312
0.0175,-21.856323242188,-2.6776123046875,23.628051757812
0.018,-19.293823242188,-7.7225341796875,26.150512695312
0.0185,-13.728393554688,-13.047729492188,25.870239257812
0.019,-10.124877929688,-17.492065429688,26.630981445312
0.0195,-5.7606201171875,-20.174682617188,24.949340820312
0.02,-0.6356201171875,-23.137573242188,22.907348632812
0.0205,4.5294189453125,-24.739135742188,19.504028320312
0.021,9.7344970703125,-26.260620117188,15.980590820312
0.0215,15.339965820312,-26.420776367188,10.735473632812
0.022,18.623168945312,-25.660034179688,6.8116455078125
0.0225,21.505981445312,-24.659057617188,3.0479736328125
0.023,24.148559570312,-22.176635742188,-2.0770263671875
0.0235,25.950317382812,-18.733276367188,-7.3221435546875
0.024,26.110473632812,-13.968627929688,-12.206909179688
0.0245,26.751098632812,-10.204956054688,-16.731323242188
0.025,25.109497070312,-5.5203857421875,-19.734252929688
0.0255,23.908325195312,-1.5164794921875,-22.577026367188
0.026,20.905395507812,3.8887939453125,-24.779174804688
0.0265,17.702270507812,9.2940673828125,-26.901245117188
0.027,11.816528320312,14.779418945312,-26.540893554688
0.0275,8.4532470703125,18.262817382812,-26.580932617188
0.028,3.8487548828125,20.985473632812,-24.659057617188
0.0285,-1.3162841796875,23.668090820312,-22.336791992188
0.029,-6.4813232421875,25.189575195312,-18.853393554688
0.0295,-12.206909179688,26.230590820312,-14.328979492188
0.03,-16.851440429688,26.230590820312,-9.8846435546875
0.0305,-20.054565429688,24.989379882812,-5.5604248046875
0.031,-22.577026367188,23.668090820312,-1.7567138671875
0.0315,-24.939331054688,20.745239257812,3.5284423828125
0.032,-26.300659179688,16.941528320312,8.6934814453125
0.0325,-26.140502929688,11.536254882812,13.898559570312
0.033,-26.540893554688,8.2930908203125,17.502075195312
0.0335,-24.739135742188,3.4083251953125,20.585083007812
0.034,-23.097534179688,-0.9158935546875,23.227661132812
0.0345,-20.014526367188,-5.9608154296875,25.149536132812
0.035,-15.970581054688,-11.726440429688,26.751098632812
0.0355,-10.765502929688,-16.370971679688,26.230590820312
0.036,-7.1219482421875,-19.494018554688,25.630004882812
0.0365,-2.5574951171875,-21.896362304688,23.547973632812
0.037,2.8477783203125,-24.458862304688,20.865356445312
0.0375,7.8526611328125,-25.660034179688,17.221801757812
0.038,13.978637695312,-26.380737304688,12.016723632812
0.0385,17.502075195312,-26.300659179688,8.5733642578125
0.039,21.025512695312,-24.819213867188,3.6885986328125
0.0395,23.187622070312,-23.137573242188,-0.1551513671875
0.04,25.349731445312,-20.094604492188,-5.3201904296875
0.0405,26.510864257812,-15.970581054688,-10.685424804688
0.041,25.990356445312,-10.565307617188,-15.530151367188
0.0415,26.070434570312,-7.6824951171875,-18.653198242188
0.042,24.148559570312,-2.5975341796875,-21.656127929688
0.0425,22.226684570312,2.0469970703125,-24.258666992188
0.043,18.863403320312,7.0118408203125,-25.780151367188
0.0435,14.098754882812,13.297973632812,-27.261596679688
0.044,9.5343017578125,17.101684570312,-26.420776367188
0.0445,5.2501220703125,20.464965820312,-25.579956054688
0.045,0.7257080078125,22.546997070312,-23.217651367188
0.0455,-4.7996826171875,25.109497070312,-20.494995117188
0.046,-9.8846435546875,25.830200195312,-16.210815429688
0.0465,-15.970581054688,26.270629882812,-10.765502929688
0.047,-18.573120117188,25.870239257812,-7.8426513671875
0.0475,-22.456909179688,24.148559570312,-2.3973388671875
0.048,-24.298706054688,21.906372070312,1.7266845703125
0.0485,-26.060424804688,18.543090820312,6.7716064453125
0.049,-27.061401367188,13.898559570312,12.457153320312
0.0495,-26.260620117188,8.6534423828125,16.781372070312
0.05,-25.980346679688,5.4903564453125,19.824340820312
0.0505,-23.698120117188,0.2852783203125,22.707153320312
0.051,-21.576049804688,-4.6395263671875,25.349731445312
0.0515,-17.452026367188,-9.4842529296875,26.070434570312
0.052,-12.567260742188,-15.690307617188,27.351684570312
0.0525,-8.5233154296875,-18.453002929688,25.990356445312
0.053,-3.3182373046875,-22.176635742188,24.588989257812
0.0535,1.1661376953125,-23.738159179688,21.826293945312
0.054,6.6114501953125,-26.260620117188,19.023559570312
0.0545,12.016723632812,-26.540893554688,14.098754882812
0.055,17.341918945312,-26.540893554688,8.8936767578125
0.0555,19.824340820312,-25.900268554688,5.9307861328125
0.056,23.547973632812,-23.858276367188,0.2452392578125
0.0565,25.309692382812,-21.295776367188,-4.1590576171875
0.057,26.230590820312,-17.492065429688,-8.8836669921875
0.0575,27.151489257812,-12.807495117188,-14.569213867188
0.058,25.790161132812,-7.8826904296875,-18.012573242188
0.0585,25.349731445312,-4.1590576171875,-21.295776367188
0.059,22.787231445312,0.8057861328125,-23.658081054688
0.0595,20.545043945312,5.8907470703125,-26.420776367188
0.06,15.580200195312,10.895629882812,-26.340698242188
0.0605,10.855590820312,16.621215820312,-27.301635742188
0.061,7.0118408203125,19.063598632812,-25.900268554688
0.0615,1.4864501953125,22.707153320312,-24.058471679688
0.062,-3.0780029296875,24.028442382812,-21.015502929688
0.0625,-8.0428466796875,25.910278320312,-18.092651367188
0.063,-13.848510742188,26.270629882812,-12.807495117188
0.0635,-17.972534179688,25.589965820312,-8.1629638671875
0.064,-20.815307617188,25.029418945312,-4.9197998046875
0.0645,-23.778198242188,22.627075195312,0.3653564453125
0.065,-25.700073242188,19.744262695312,5.2501220703125
0.0655,-26.020385742188,15.500122070312,9.7344970703125
0.066,-26.981323242188,10.935668945312,15.380004882812
0.0665,-25.539916992188,6.4512939453125,18.382934570312
0.067,-24.659057617188,2.2471923828125,21.746215820312
0.0675,-21.976440429688,-2.6776123046875,23.828247070312
0.068,-19.574096679688,-7.7225341796875,26.470825195312
0.0685,-14.128784179688,-13.047729492188,26.230590820312
0.069,-9.9647216796875,-17.652221679688,26.590942382812
0.0695,-6.0408935546875,-20.214721679688,25.269653320312
0.07,-0.4354248046875,-23.417846679688,23.027465820312
0.0705,4.6495361328125,-25.099487304688,19.784301757812
0.071,9.6544189453125,-26.460815429688,16.220825195312
0.0715,15.500122070312,-26.901245117188,11.015747070312
0.072,18.863403320312,-25.700073242188,6.6514892578125
0.0725,21.946411132812,-25.019409179688,2.8878173828125
0.073,24.548950195312,-22.336791992188,-2.3172607421875
0.0735,26.590942382812,-19.133666992188,-7.6424560546875
0.074,26.390747070312,-14.088745117188,-12.367065429688
0.0745,27.031372070312,-9.9647216796875,-17.171752929688
0.075,25.349731445312,-5.4403076171875,-20.014526367188
0.0755,24.148559570312,-0.9559326171875,-23.257690429688
0.076,21.065551757812,4.3292236328125,-25.339721679688
0.0765,17.902465820312,9.7344970703125,-27.501831054688
0.077,12.016723632812,15.219848632812,-27.061401367188
0.0775,8.0928955078125,18.863403320312,-26.661010742188
0.078,3.7286376953125,21.505981445312,-25.059448242188
0.0785,-1.8768310546875,24.348754882812,-22.536987304688
0.079,-7.0819091796875,25.950317382812,-19.093627929688
0.0795,-12.647338867188,26.630981445312,-14.369018554688
0.08,-17.411987304688,26.791137695312,-9.9246826171875
0.0805,-20.494995117188,25.069458007812,-5.2000732421875
0.081,-23.297729492188,23.908325195312,-1.3563232421875
0.0815,-25.619995117188,20.825317382812,3.9688720703125
0.082,-27.181518554688,17.141723632812,9.2940673828125
0.0825,-26.620971679688,11.656372070312,14.258911132812
0.083,-26.861206054688,8.0928955078125,18.062622070312
0.0835,-24.979370117188,3.3282470703125,20.985473632812
0.084,-23.377807617188,-1.3563232421875,23.988403320312
0.0845,-20.174682617188,-6.5213623046875,25.830200195312
0.085,-16.050659179688,-12.206909179688,27.351684570312
0.0855,-10.885620117188,-16.891479492188,26.831176757812
0.086,-6.7215576171875,-20.054565429688,25.790161132812
0.0865,-2.4373779296875,-22.456909179688,23.948364257812
0.087,3.2882080078125,-25.099487304688,21.105590820312
0.0875,8.4532470703125,-26.500854492188,17.462036132812
0.088,14.338989257812,-26.821166992188,12.096801757812
0.0885,17.902465820312,-26.861206054688,8.6934814453125
0.089,21.345825195312,-25.059448242188,3.5284423828125
0.0895,23.708129882812,-23.578002929688,-0.3953857421875
0.09,25.870239257812,-20.294799804688,-5.6805419921875
0.0905,27.231567382812,-16.170776367188,-11.125854492188
0.091,26.430786132812,-10.605346679688,-15.890502929688
0.0915,26.350708007812,-7.4022216796875,-19.093627929688
0.092,24.388793945312,-2.5975341796875,-21.896362304688
0.0925,22.466918945312,2.2872314453125,-24.819213867188
0.093,19.023559570312,7.4122314453125,-26.340698242188
0.0935,14.138793945312,13.618286132812,-27.581909179688
0.094,9.6544189453125,17.341918945312,-26.861206054688
0.0945,4.9298095703125,20.745239257812,-25.499877929688
0.095,0.6856689453125,22.747192382812,-23.337768554688
0.0955,-4.9598388671875,25.349731445312,-20.494995117188
0.096,-10.244995117188,26.390747070312,-16.411010742188
0.0965,-16.010620117188,26.310668945312,-10.765502929688
0.097,-18.733276367188,25.990356445312,-7.8826904296875
0.0975,-22.416870117188,23.988403320312,-2.3572998046875
0.098,-24.378784179688,22.066528320312,1.6466064453125
0.0985,-26.020385742188,18.583129882812,6.7315673828125
0.099,-27.301635742188,14.098754882812,12.497192382812
0.0995,-26.220581054688,8.8936767578125,16.661254882812
0.1,-25.820190429688,5.3302001953125,19.824340820312
0.1005,-23.658081054688,0.5655517578125,22.386840820312
0.101,-21.656127929688,-4.5194091796875,25.309692382812
0.1015,-17.652221679688,-9.4842529296875,26.230590820312
0.102,-12.607299804688,-15.530151367188,27.151489257812
0.1025,-8.9237060546875,-18.252807617188,26.190551757812
0.103,-3.3983154296875,-21.936401367188,24.388793945312
0.1035,0.8057861328125,-23.537963867188,21.946411132812
0.104,6.2510986328125,-25.940307617188,19.063598632812
0.1045,11.976684570312,-26.861206054688,14.379028320312
0.105,17.101684570312,-26.420776367188,8.9737548828125
0.1055,19.664184570312,-25.980346679688,6.0909423828125
0.106,23.147583007812,-23.778198242188,0.5655517578125
0.1065,25.229614257812,-21.415893554688,-3.9188232421875
0.107,26.150512695312,-17.652221679688,-8.6033935546875
0.1075,27.311645507812,-12.927612304688,-14.489135742188
0.108,25.950317382812,-8.2830810546875,-17.812377929688
0.1085,25.269653320312,-4.1190185546875,-21.255737304688
0.109,22.867309570312,0.5255126953125,-23.377807617188
0.1095,20.705200195312,5.7706298828125,-26.380737304688
0.11,15.900512695312,11.015747070312,-26.781127929688
0.1105,10.855590820312,16.701293945312,-27.421752929688
0.111,7.3721923828125,19.103637695312,-26.260620117188
0.1115,1.4464111328125,22.747192382812,-24.058471679688
0.112,-3.0780029296875,24.268676757812,-21.215698242188
0.1125,-8.0828857421875,26.110473632812,-18.252807617188
0.113,-14.248901367188,26.831176757812,-13.007690429688
0.1135,-18.292846679688,25.830200195312,-8.1629638671875
0.114,-21.175659179688,25.229614257812,-4.6795654296875
0.1145,-24.058471679688,22.707153320312,0.6456298828125
0.115,-26.260620117188,19.984497070312,5.6104736328125
0.1155,-26.420776367188,15.620239257812,10.094848632812
0.116,-27.501831054688,10.895629882812,15.900512695312
0.1165,-25.900268554688,6.4913330078125,18.703247070312
0.117,-24.779174804688,1.8468017578125,22.266723632812
0.1175,-21.976440429688,-2.9578857421875,24.148559570312
0.118,-19.654174804688,-8.1229248046875,26.911254882812
0.1185,-14.208862304688,-13.528198242188,26.791137695312
0.119,-9.6444091796875,-18.132690429688,26.791137695312
0.1195,-5.8406982421875,-20.535034179688,25.429809570312
0.12,0.0450439453125,-23.778198242188,22.907348632812
0.1205,5.0098876953125,-25.539916992188,19.864379882812
0.121,9.9346923828125,-26.620971679688,16.060668945312
0.1215,15.900512695312,-27.381713867188,11.015747070312
0.122,19.063598632812,-25.740112304688,6.5313720703125
0.1225,22.226684570312,-24.899291992188,2.5675048828125
0.123,24.588989257812,-22.096557617188,-2.5574951171875
0.1235,26.711059570312,-19.093627929688,-7.7225341796875
0.124,26.270629882812,-14.128784179688,-12.246948242188
0.1245,26.951293945312,-9.8846435546875,-17.211791992188
0.125,25.309692382812,-5.6805419921875,-19.734252929688
0.1255,23.828247070312,-0.7957763671875,-23.097534179688
0.126,20.945434570312,4.0889892578125,-24.979370117188
0.1265,17.862426757812,9.2540283203125,-26.981323242188
0.127,12.377075195312,14.859497070312,-27.061401367188
0.1275,8.0528564453125,18.382934570312,-26.260620117188
0.128,4.0889892578125,20.945434570312,-24.859252929688
0.1285,-1.5965576171875,23.668090820312,-22.096557617188
0.129,-6.4412841796875,25.469848632812,-19.173706054688
0.1295,-11.726440429688,25.830200195312,-14.529174804688
0.13,-16.811401367188,26.590942382812,-10.244995117188
0.1305,-19.694213867188,24.829223632812,-5.7606201171875
0.131,-22.617065429688,23.708129882812,-1.7967529296875
0.1315,-24.699096679688,20.625122070312,3.3682861328125
0.132,-26.580932617188,17.381958007812,8.4532470703125
0.1325,-26.140502929688,12.136840820312,13.297973632812
0.133,-26.380737304688,8.2930908203125,17.421997070312
0.1335,-24.859252929688,4.1290283203125,20.024536132812
0.134,-23.057495117188,-0.9559326171875,23.227661132812
0.1345,-20.174682617188,-5.7606201171875,25.109497070312
0.135,-16.250854492188,-11.286010742188,26.590942382812
0.1355,-11.526245117188,-16.170776367188,26.751098632812
0.136,-7.0418701171875,-19.373901367188,25.469848632812
0.1365,-2.9578857421875,-21.776245117188,23.788208007812
0.137,2.8878173828125,-24.458862304688,20.785278320312
0.1375,7.8526611328125,-26.300659179688,17.742309570312
0.138,13.698364257812,-26.300659179688,12.216918945312
0.1385,17.582153320312,-26.741088867188,8.9337158203125
0.139,20.745239257812,-24.899291992188,4.0889892578125
0.1395,23.427856445312,-23.377807617188,-0.1951904296875
0.14,25.509887695312,-20.014526367188,-5.5203857421875
0.1405,27.071411132812,-16.330932617188,-10.885620117188
0.141,26.390747070312,-10.885620117188,-15.650268554688
0.1415,26.230590820312,-7.4022216796875,-19.013549804688
0.142,24.348754882812,-2.9578857421875,-21.495971679688
0.1425,22.266723632812,2.4073486328125,-24.619018554688
0.143,18.903442382812,7.6124267578125,-26.420776367188
0.1435,13.938598632812,13.618286132812,-27.421752929688
0.144,9.8946533203125,17.421997070312,-27.101440429688
0.1445,4.9298095703125,20.705200195312,-25.499877929688
0.145,0.6856689453125,22.707153320312,-23.257690429688
0.1455,-5.1600341796875,25.229614257812,-20.254760742188
0.146,-10.565307617188,26.711059570312,-16.411010742188
0.1465,-16.170776367188,26.310668945312,-10.605346679688
0.147,-18.973510742188,26.190551757812,-7.7625732421875
0.1475,-22.256713867188,24.068481445312,-2.5174560546875
0.148,-24.578979492188,21.986450195312,1.9268798828125
0.1485,-26.140502929688,18.302856445312,7.0919189453125
0.149,-27.421752929688,13.938598632812,12.777465820312
0.1495,-26.460815429688,8.9337158203125,16.861450195312
0.15,-25.820190429688,5.0899658203125,19.984497070312
0.1505,-23.698120117188,0.7657470703125,22.226684570312
0.151,-21.455932617188,-4.6395263671875,25.269653320312
0.1515,-17.572143554688,-9.8846435546875,26.550903320312
0.152,-12.246948242188,-15.770385742188,27.031372070312
0.1525,-9.0037841796875,-18.533081054688,26.470825195312
0.153,-3.4783935546875,-21.856323242188,24.348754882812
0.1535,0.8057861328125,-23.618041992188,21.906372070312
0.154,6.2911376953125,-25.780151367188,18.863403320312
0.1545,12.176879882812,-27.061401367188,14.379028320312
0.155,17.101684570312,-26.340698242188,8.9737548828125
0.1555,19.664184570312,-25.940307617188,6.1309814453125
0.156,22.787231445312,-23.698120117188,0.8858642578125
0.1565,25.109497070312,-21.375854492188,-3.8387451171875
0.157,26.070434570312,-17.492065429688,-8.6834716796875
0.1575,27.191528320312,-12.807495117188,-14.489135742188
0.158,26.070434570312,-8.5233154296875,-17.652221679688
0.1585,25.149536132812,-4.2391357421875,-21.015502929688
0.159,22.827270507812,0.0850830078125,-22.937377929688
0.1595,20.464965820312,5.4903564453125,-25.940307617188
0.16,15.860473632812,11.015747070312,-26.861206054688
0.1605,10.695434570312,16.461059570312,-26.981323242188
0.161,7.6124267578125,18.823364257812,-26.260620117188
0.1615,1.7266845703125,22.186645507812,-23.858276367188
0.162,-2.8377685546875,23.948364257812,-21.175659179688
0.1625,-7.7625732421875,25.589965820312,-18.012573242188
0.163,-14.088745117188,26.791137695312,-13.087768554688
0.1635,-17.812377929688,25.630004882812,-8.4031982421875
0.164,-20.815307617188,25.029418945312,-4.8797607421875
0.1645,-23.377807617188,22.546997070312,0.1251220703125
0.165,-25.780151367188,19.864379882812,5.1700439453125
0.1655,-26.100463867188,15.500122070312,9.8145751953125
0.166,-27.021362304688,10.735473632812,15.580200195312
0.1665,-25.780151367188,6.9718017578125,18.222778320312
0.167,-24.498901367188,2.0469970703125,21.746215820312
0.1675,-21.896362304688,-2.4373779296875,23.547973632812
0.168,-19.373901367188,-7.5623779296875,26.110473632812
0.1685,-14.369018554688,-13.328002929688,26.711059570312
0.169,-9.6444091796875,-17.652221679688,26.270629882812
0.1695,-6.2410888671875,-20.174682617188,25.309692382812
0.17,-0.4354248046875,-23.057495117188,22.587036132812
0.1705,4.5694580078125,-25.019409179688,19.784301757812
0.171,9.3341064453125,-25.900268554688,15.980590820312
0.1715,15.660278320312,-27.101440429688,11.095825195312
0.172,18.503051757812,-25.619995117188,6.9317626953125
0.1725,21.866333007812,-24.779174804688,2.7677001953125
0.173,23.948364257812,-21.896362304688,-2.1170654296875
0.1735,26.230590820312,-19.053588867188,-7.2821044921875
0.174,26.190551757812,-14.288940429688,-11.926635742188
0.1745,26.630981445312,-9.7645263671875,-16.971557617188
0.175,25.429809570312,-6.1209716796875,-19.413940429688
0.1755,23.668090820312,-1.0360107421875,-22.777221679688
0.176,20.825317382812,3.8087158203125,-24.659057617188
0.1765,17.742309570312,8.8936767578125,-26.540893554688
0.177,12.657348632812,14.739379882812,-27.261596679688
0.1775,8.0528564453125,18.182739257812,-26.140502929688
0.178,4.2091064453125,20.905395507812,-24.979370117188
