wavelength,x,y,z
0.0,9.138916015625,-5.315185546875,-3.833740234375
0.0005,8.818603515625,-3.673583984375,-5.195068359375
0.001,8.538330078125,-2.192138671875,-6.436279296875
0.0015,7.897705078125,-0.590576171875,-7.397216796875
0.002,6.776611328125,1.291259765625,-7.997802734375
0.0025,5.655517578125,3.133056640625,-8.718505859375
0.003,3.933837890625,4.894775390625,-8.838623046875
0.0035,2.252197265625,6.095947265625,-8.318115234375
0.004,1.010986328125,7.377197265625,-8.478271484375
0.0045,-0.590576171875,7.977783203125,-7.557373046875
0.005,-2.112060546875,8.618408203125,-6.676513671875
0.0055,-3.793701171875,9.138916015625,-5.595458984375
0.006,-5.034912109375,8.818603515625,-3.993896484375
0.0065,-6.115966796875,8.538330078125,-2.672607421875
0.007,-7.076904296875,8.057861328125,-1.271240234375
0.0075,-7.517333984375,6.896728515625,0.410400390625
0.008,-8.318115234375,6.095947265625,1.931884765625
0.0085,-8.558349609375,4.614501953125,3.653564453125
0.009,-8.318115234375,3.133056640625,4.854736328125
0.0095,-8.238037109375,1.651611328125,6.256103515625
0.01,-7.397216796875,0.130126953125,7.056884765625
0.0105,-6.436279296875,-1.671630859375,7.857666015625
0.011,-5.275146484375,-3.473388671875,8.458251953125
0.0115,-3.513427734375,-5.114990234375,8.338134765625
0.012,-2.192138671875,-6.316162109375,8.298095703125
0.0125,-0.910888671875,-7.557373046875,8.258056640625
0.013,0.730712890625,-8.197998046875,7.337158203125
0.0135,2.252197265625,-8.958740234375,6.576416015625
0.014,3.893798828125,-9.319091796875,5.415283203125
0.0145,5.094970703125,-8.998779296875,3.893798828125
0.015,6.376220703125,-8.958740234375,2.612548828125
0.0155,7.096923828125,-8.197998046875,1.131103515625
0.016,7.817626953125,-7.237060546875,-0.590576171875
0.0165,8.578369140625,-6.436279296875,-2.192138671875
0.017,8.658447265625,-4.874755859375,-3.833740234375
0.0175,8.458251953125,-3.473388671875,-5.114990234375
0.018,8.298095703125,-1.871826171875,-6.436279296875
0.0185,7.337158203125,-0.190185546875,-7.156982421875
0.019,6.456298828125,1.651611328125,-8.077880859375
0.0195,5.054931640625,3.533447265625,-8.558349609375
0.02,3.253173828125,5.054931640625,-8.318115234375
0.0205,2.011962890625,6.376220703125,-8.398193359375
0.021,0.610595703125,7.377197265625,-8.037841796875
0.0215,-1.111083984375,8.017822265625,-7.076904296875
0.022,-2.672607421875,8.818603515625,-6.316162109375
0.0225,-4.234130859375,8.858642578125,-4.874755859375
0.023,-5.395263671875,8.578369140625,-3.473388671875
0.0235,-6.676513671875,8.418212890625,-2.031982421875
0.024,-7.156982421875,7.377197265625,-0.510498046875
0.0245,-7.997802734375,6.416259765625,1.211181640625
0.025,-8.478271484375,5.335205078125,2.892822265625
0.0255,-8.398193359375,3.693603515625,4.454345703125
0.026,-8.278076171875,2.292236328125,5.695556640625
0.0265,-7.837646484375,0.690673828125,6.896728515625
0.027,-6.716552734375,-1.151123046875,7.537353515625
0.0275,-5.715576171875,-2.992919921875,8.458251953125
0.028,-3.993896484375,-4.834716796875,8.538330078125
0.0285,-2.432373046875,-6.115966796875,8.298095703125
0.029,-1.191162109375,-7.477294921875,8.458251953125
0.0295,0.490478515625,-8.278076171875,7.657470703125
0.03,2.172119140625,-8.958740234375,6.696533203125
0.0305,3.853759765625,-9.559326171875,5.695556640625
0.031,5.255126953125,-9.279052734375,4.053955078125
0.0315,6.416259765625,-9.118896484375,2.732666015625
0.032,7.457275390625,-8.598388671875,1.171142578125
0.0325,7.977783203125,-7.437255859375,-0.590576171875
0.033,8.698486328125,-6.476318359375,-2.272216796875
0.0335,9.058837890625,-5.114990234375,-4.033935546875
0.034,8.698486328125,-3.273193359375,-5.395263671875
0.0345,8.498291015625,-1.831787109375,-6.716552734375
0.035,7.577392578125,0.010009765625,-7.517333984375
0.0355,6.416259765625,1.931884765625,-8.278076171875
0.036,5.094970703125,3.853759765625,-8.918701171875
0.0365,3.253173828125,5.535400390625,-8.718505859375
0.037,1.771728515625,6.736572265625,-8.478271484375
0.0375,0.370361328125,7.937744140625,-8.318115234375
0.038,-1.591552734375,8.538330078125,-7.116943359375
0.0385,-3.193115234375,9.098876953125,-6.115966796875
0.039,-4.794677734375,9.419189453125,-4.874755859375
0.0395,-5.955810546875,8.858642578125,-3.153076171875
0.04,-7.116943359375,8.658447265625,-1.871826171875
0.0405,-7.797607421875,7.537353515625,-0.110107421875
0.041,-8.318115234375,6.336181640625,1.651611328125
0.0415,-8.918701171875,5.295166015625,3.333251953125
0.042,-8.918701171875,3.653564453125,5.054931640625
0.0425,-8.478271484375,1.971923828125,6.256103515625
0.043,-8.197998046875,0.410400390625,7.537353515625
0.0435,-6.796630859375,-1.551513671875,8.057861328125
0.044,-5.595458984375,-3.553466796875,8.818603515625
0.0445,-3.993896484375,-5.315185546875,9.058837890625
0.045,-2.152099609375,-6.756591796875,8.658447265625
0.0455,-0.830810546875,-7.917724609375,8.538330078125
0.046,0.810791015625,-8.838623046875,7.897705078125
0.0465,2.732666015625,-9.439208984375,6.616455078125
0.047,4.294189453125,-9.879638671875,5.575439453125
0.0475,5.815673828125,-9.839599609375,4.013916015625
0.048,6.896728515625,-9.239013671875,2.412353515625
0.0485,7.897705078125,-8.958740234375,1.010986328125
0.049,8.378173828125,-7.557373046875,-0.910888671875
0.0495,8.978759765625,-6.436279296875,-2.592529296875
0.05,9.339111328125,-5.114990234375,-4.234130859375
0.0505,9.058837890625,-3.273193359375,-5.755615234375
0.051,8.618408203125,-1.751708984375,-6.876708984375
0.0515,7.937744140625,0.010009765625,-7.877685546875
0.052,6.496337890625,2.052001953125,-8.478271484375
0.0525,5.175048828125,3.933837890625,-9.078857421875
0.053,3.493408203125,5.615478515625,-9.078857421875
0.0535,1.651611328125,6.896728515625,-8.598388671875
0.054,0.490478515625,7.977783203125,-8.478271484375
0.0545,-1.431396484375,8.658447265625,-7.397216796875
0.055,-3.153076171875,9.218994140625,-6.236083984375
0.0555,-4.634521484375,9.459228515625,-5.114990234375
0.056,-5.955810546875,9.178955078125,-3.473388671875
0.0565,-6.916748046875,8.658447265625,-2.072021484375
0.057,-7.837646484375,7.977783203125,-0.510498046875
0.0575,-8.238037109375,6.536376953125,1.371337890625
0.058,-8.838623046875,5.575439453125,2.972900390625
0.0585,-8.998779296875,4.174072265625,4.614501953125
0.059,-8.598388671875,2.412353515625,5.935791015625
0.0595,-8.318115234375,0.970947265625,7.096923828125
0.06,-7.277099609375,-0.910888671875,7.857666015625
0.0605,-5.955810546875,-2.872802734375,8.538330078125
0.061,-4.554443359375,-4.594482421875,8.938720703125
0.0615,-2.832763671875,-6.196044921875,8.778564453125
0.062,-1.351318359375,-7.317138671875,8.458251953125
0.0625,0.010009765625,-8.438232421875,8.298095703125
0.063,1.891845703125,-8.998779296875,7.056884765625
0.0635,3.493408203125,-9.599365234375,6.055908203125
0.064,4.934814453125,-9.759521484375,4.774658203125
0.0645,6.176025390625,-9.319091796875,3.173095703125
0.065,7.177001953125,-9.038818359375,1.891845703125
0.0655,7.937744140625,-8.157958984375,0.170166015625
0.066,8.458251953125,-6.876708984375,-1.591552734375
0.0665,8.978759765625,-5.835693359375,-3.153076171875
0.067,9.058837890625,-4.314208984375,-4.794677734375
0.0675,8.538330078125,-2.552490234375,-6.035888671875
0.068,8.298095703125,-1.111083984375,-7.197021484375
0.0685,7.056884765625,0.850830078125,-7.837646484375
0.069,5.935791015625,2.732666015625,-8.678466796875
0.0695,4.454345703125,4.454345703125,-8.878662109375
0.07,2.652587890625,5.935791015625,-8.638427734375
0.0705,1.371337890625,7.056884765625,-8.438232421875
0.071,-0.150146484375,8.057861328125,-7.997802734375
0.0715,-2.072021484375,8.658447265625,-6.756591796875
0.072,-3.473388671875,9.138916015625,-5.835693359375
0.0725,-4.954833984375,9.138916015625,-4.474365234375
0.073,-6.075927734375,8.618408203125,-2.872802734375
0.0735,-7.197021484375,8.418212890625,-1.591552734375
0.074,-7.717529296875,7.177001953125,0.290283203125
0.0745,-8.358154296875,6.176025390625,1.931884765625
0.075,-8.718505859375,5.014892578125,3.493408203125
0.0755,-8.678466796875,3.373291015625,5.094970703125
0.076,-8.278076171875,1.851806640625,6.256103515625
0.0765,-7.917724609375,0.210205078125,7.417236328125
0.077,-6.476318359375,-1.871826171875,8.017822265625
0.0775,-5.395263671875,-3.713623046875,8.778564453125
0.078,-3.633544921875,-5.355224609375,8.698486328125
0.0785,-2.072021484375,-6.676513671875,8.498291015625
0.079,-0.790771484375,-7.877685546875,8.458251953125
0.0795,0.970947265625,-8.678466796875,7.617431640625
0.08,2.812744140625,-9.359130859375,6.496337890625
0.0805,4.294189453125,-9.759521484375,5.375244140625
0.081,5.735595703125,-9.599365234375,3.853759765625
0.0815,6.776611328125,-9.158935546875,2.332275390625
0.082,7.817626953125,-8.678466796875,0.890869140625
0.0825,8.298095703125,-7.197021484375,-1.151123046875
0.083,9.018798828125,-6.276123046875,-2.752685546875
0.0835,9.138916015625,-4.794677734375,-4.394287109375
0.084,8.898681640625,-3.032958984375,-5.875732421875
0.0845,8.458251953125,-1.511474609375,-7.036865234375
0.085,7.657470703125,0.370361328125,-7.957763671875
0.0855,6.135986328125,2.532470703125,-8.678466796875
0.086,4.854736328125,4.334228515625,-9.158935546875
0.0865,2.892822265625,6.015869140625,-8.918701171875
0.087,1.411376953125,7.177001953125,-8.598388671875
0.0875,0.010009765625,8.298095703125,-8.358154296875
0.088,-2.031982421875,8.858642578125,-7.036865234375
0.0885,-3.713623046875,9.459228515625,-5.955810546875
0.089,-5.155029296875,9.379150390625,-4.514404296875
0.0895,-6.436279296875,9.098876953125,-2.952880859375
0.09,-7.397216796875,8.578369140625,-1.431396484375
0.0905,-8.197998046875,7.697509765625,0.290283203125
0.091,-8.678466796875,6.095947265625,2.292236328125
0.0915,-9.158935546875,5.094970703125,3.853759765625
0.092,-9.038818359375,3.373291015625,5.415283203125
0.0925,-8.598388671875,1.651611328125,6.696533203125
0.093,-8.197998046875,0.090087890625,7.857666015625
0.0935,-6.756591796875,-1.951904296875,8.458251953125
0.094,-5.315185546875,-4.154052734375,9.218994140625
0.0945,-3.593505859375,-5.795654296875,9.098876953125
0.095,-1.791748046875,-7.277099609375,8.858642578125
0.0955,-0.430419921875,-8.278076171875,8.498291015625
0.096,1.211181640625,-9.239013671875,7.937744140625
0.0965,3.213134765625,-9.759521484375,6.416259765625
0.097,4.854736328125,-10.239990234375,5.295166015625
0.0975,6.256103515625,-9.919677734375,3.573486328125
0.098,7.337158203125,-9.439208984375,2.132080078125
0.0985,8.218017578125,-8.798583984375,0.650634765625
0.099,8.738525390625,-7.517333984375,-1.231201171875
0.0995,9.259033203125,-6.075927734375,-3.193115234375
0.1,9.419189453125,-4.794677734375,-4.634521484375
0.1005,9.178955078125,-2.992919921875,-6.156005859375
0.101,8.538330078125,-1.351318359375,-7.156982421875
0.1015,7.937744140625,0.330322265625,-8.197998046875
0.102,6.336181640625,2.412353515625,-8.678466796875
0.1025,5.014892578125,4.454345703125,-9.359130859375
0.103,3.052978515625,5.895751953125,-8.958740234375
0.1035,1.451416015625,7.257080078125,-8.718505859375
0.104,0.130126953125,8.137939453125,-8.318115234375
0.1045,-1.591552734375,8.818603515625,-7.437255859375
0.105,-3.553466796875,9.299072265625,-6.035888671875
0.1055,-4.874755859375,9.459228515625,-4.874755859375
0.106,-6.156005859375,9.098876953125,-3.193115234375
0.1065,-7.076904296875,8.658447265625,-1.871826171875
0.107,-7.957763671875,7.977783203125,-0.350341796875
0.1075,-8.278076171875,6.496337890625,1.531494140625
0.108,-8.918701171875,5.415283203125,3.253173828125
0.1085,-8.838623046875,4.013916015625,4.534423828125
0.109,-8.678466796875,2.372314453125,6.015869140625
0.1095,-8.117919921875,0.890869140625,6.976806640625
0.11,-7.397216796875,-0.870849609375,7.937744140625
0.1105,-5.795654296875,-2.912841796875,8.418212890625
0.111,-4.594482421875,-4.594482421875,8.938720703125
0.1115,-2.712646484375,-6.075927734375,8.498291015625
0.112,-1.431396484375,-7.237060546875,8.458251953125
0.1125,0.010009765625,-8.278076171875,8.137939453125
0.113,1.611572265625,-8.918701171875,7.096923828125
0.1135,3.373291015625,-9.559326171875,6.055908203125
0.114,4.614501953125,-9.479248046875,4.814697265625
0.1145,5.975830078125,-9.239013671875,3.293212890625
0.115,6.776611328125,-8.838623046875,2.052001953125
0.1155,7.737548828125,-8.157958984375,0.450439453125
0.116,8.137939453125,-6.836669921875,-1.311279296875
0.1165,8.858642578125,-5.955810546875,-2.872802734375
0.117,8.738525390625,-4.474365234375,-4.274169921875
0.1175,8.578369140625,-2.912841796875,-5.635498046875
0.118,8.177978515625,-1.431396484375,-6.716552734375
0.1185,7.257080078125,0.370361328125,-7.597412109375
0.119,6.015869140625,2.332275390625,-8.318115234375
0.1195,4.774658203125,3.893798828125,-8.638427734375
0.12,2.892822265625,5.415283203125,-8.318115234375
0.1205,1.811767578125,6.536376953125,-8.358154296875
0.121,0.290283203125,7.577392578125,-7.957763671875
0.1215,-1.431396484375,8.137939453125,-6.916748046875
0.122,-2.992919921875,8.898681640625,-6.115966796875
0.1225,-4.194091796875,8.738525390625,-4.754638671875
0.123,-5.515380859375,8.658447265625,-3.353271484375
0.1235,-6.476318359375,8.258056640625,-2.072021484375
0.124,-7.317138671875,7.377197265625,-0.350341796875
0.1245,-7.877685546875,6.296142578125,1.331298828125
0.125,-8.478271484375,5.415283203125,2.812744140625
0.1255,-8.358154296875,3.813720703125,4.334228515625
0.126,-8.197998046875,2.372314453125,5.615478515625
0.1265,-7.837646484375,0.770751953125,6.776611328125
0.127,-6.716552734375,-1.111083984375,7.537353515625
0.1275,-5.595458984375,-3.032958984375,8.298095703125
0.128,-4.033935546875,-4.514404296875,8.298095703125
0.1285,-2.552490234375,-6.075927734375,8.298095703125
0.129,-1.431396484375,-7.197021484375,8.298095703125
0.1295,0.290283203125,-8.197998046875,7.697509765625
0.13,2.011962890625,-8.798583984375,6.696533203125
0.1305,3.493408203125,-9.279052734375,5.735595703125
0.131,4.814697265625,-9.118896484375,4.254150390625
0.1315,6.055908203125,-8.998779296875,2.972900390625
0.132,7.016845703125,-8.478271484375,1.531494140625
0.1325,7.697509765625,-7.437255859375,-0.270263671875
0.133,8.458251953125,-6.436279296875,-1.991943359375
0.1335,8.698486328125,-5.275146484375,-3.433349609375
0.134,8.658447265625,-3.593505859375,-5.074951171875
0.1345,8.338134765625,-2.192138671875,-6.115966796875
0.135,7.697509765625,-0.470458984375,-7.237060546875
0.1355,6.456298828125,1.571533203125,-7.997802734375
0.136,5.255126953125,3.453369140625,-8.678466796875
0.1365,3.493408203125,4.854736328125,-8.398193359375
0.137,2.092041015625,6.296142578125,-8.438232421875
0.1375,0.810791015625,7.297119140625,-8.197998046875
0.138,-0.990966796875,8.177978515625,-7.317138671875
0.1385,-2.752685546875,8.818603515625,-6.276123046875
0.139,-4.114013671875,8.978759765625,-5.074951171875
0.1395,-5.475341796875,8.738525390625,-3.513427734375
0.14,-6.516357421875,8.458251953125,-2.272216796875
0.1405,-7.357177734375,7.657470703125,-0.590576171875
0.141,-7.957763671875,6.416259765625,1.251220703125
0.1415,-8.638427734375,5.415283203125,2.932861328125
0.142,-8.478271484375,4.013916015625,4.294189453125
0.1425,-8.398193359375,2.372314453125,5.775634765625
0.143,-8.037841796875,0.970947265625,6.856689453125
0.1435,-7.036865234375,-0.990966796875,7.697509765625
0.144,-5.715576171875,-3.072998046875,8.458251953125
0.1445,-4.154052734375,-4.834716796875,8.658447265625
0.145,-2.472412109375,-6.276123046875,8.378173828125
0.1455,-1.231201171875,-7.517333984375,8.378173828125
0.146,0.290283203125,-8.318115234375,7.897705078125
0.1465,2.132080078125,-9.038818359375,6.776611328125
0.147,3.893798828125,-9.679443359375,5.735595703125
0.1475,5.135009765625,-9.359130859375,4.214111328125
0.148,6.496337890625,-9.239013671875,2.732666015625
0.1485,7.377197265625,-8.718505859375,1.411376953125
0.149,8.057861328125,-7.717529296875,-0.390380859375
0.1495,8.658447265625,-6.436279296875,-2.272216796875
0.15,9.058837890625,-5.155029296875,-3.913818359375
0.1505,8.818603515625,-3.553466796875,-5.275146484375
0.151,8.498291015625,-1.951904296875,-6.556396484375
0.1515,7.857666015625,-0.430419921875,-7.437255859375
0.152,6.696533203125,1.571533203125,-8.278076171875
0.1525,5.295166015625,3.693603515625,-8.958740234375
0.153,3.533447265625,5.175048828125,-8.718505859375
0.1535,1.891845703125,6.616455078125,-8.598388671875
0.154,0.610595703125,7.697509765625,-8.318115234375
0.1545,-1.071044921875,8.418212890625,-7.477294921875
0.155,-2.912841796875,9.018798828125,-6.316162109375
0.1555,-4.514404296875,9.379150390625,-5.114990234375
0.156,-5.675537109375,8.898681640625,-3.513427734375
0.1565,-6.876708984375,8.658447265625,-2.072021484375
0.157,-7.557373046875,7.937744140625,-0.630615234375
0.1575,-8.157958984375,6.696533203125,1.211181640625
0.158,-8.758544921875,5.455322265625,3.052978515625
0.1585,-8.758544921875,4.013916015625,4.494384765625
0.159,-8.518310546875,2.452392578125,5.855712890625
0.1595,-8.157958984375,0.930908203125,7.016845703125
0.16,-7.317138671875,-0.790771484375,7.777587890625
0.1605,-5.915771484375,-2.832763671875,8.458251953125
0.161,-4.474365234375,-4.794677734375,8.938720703125
0.1615,-2.632568359375,-6.156005859375,8.458251953125
0.162,-1.271240234375,-7.437255859375,8.498291015625
0.1625,0.090087890625,-8.318115234375,8.137939453125
0.163,1.771728515625,-8.958740234375,7.096923828125
0.1635,3.653564453125,-9.679443359375,6.015869140625
0.164,5.054931640625,-9.559326171875,4.534423828125
0.1645,6.256103515625,-9.279052734375,3.052978515625
0.165,7.257080078125,-8.918701171875,1.691650390625
0.1655,7.937744140625,-7.997802734375,0.130126953125
0.166,8.498291015625,-6.756591796875,-1.711669921875
0.1665,9.098876953125,-5.595458984375,-3.513427734375
0.167,8.818603515625,-3.993896484375,-4.794677734375
0.1675,8.658447265625,-2.432373046875,-6.236083984375
0.168,8.057861328125,-0.990966796875,-7.116943359375
0.1685,7.096923828125,0.810791015625,-7.957763671875
0.169,5.775634765625,2.852783203125,-8.678466796875
0.1695,4.214111328125,4.614501953125,-8.918701171875
0.17,2.452392578125,6.015869140625,-8.438232421875
0.1705,1.211181640625,7.217041015625,-8.478271484375
0.171,-0.310302734375,8.017822265625,-7.837646484375
0.1715,-1.991943359375,8.618408203125,-6.756591796875
0.172,-3.753662109375,9.259033203125,-5.715576171875
0.1725,-4.994873046875,8.898681640625,-4.154052734375
0.173,-6.236083984375,8.738525390625,-2.792724609375
0.1735,-7.076904296875,8.218017578125,-1.431396484375
0.174,-7.717529296875,7.136962890625,0.290283203125
0.1745,-8.318115234375,6.015869140625,2.052001953125
0.175,-8.718505859375,4.774658203125,3.693603515625
0.1755,-8.478271484375,3.293212890625,4.934814453125
0.176,-8.278076171875,1.731689453125,6.336181640625
0.1765,-7.717529296875,0.210205078125,7.217041015625
0.177,-6.556396484375,-1.711669921875,7.937744140625
0.1775,-5.275146484375,-3.793701171875,8.658447265625
0.178,-3.513427734375,-5.275146484375,8.458251953125
0.1785,-2.072021484375,-6.596435546875,8.418212890625
0.179,-0.790771484375,-7.717529296875,8.298095703125
0.1795,0.810791015625,-8.478271484375,7.577392578125
0.18,2.572509765625,-9.118896484375,6.496337890625
0.1805,4.214111328125,-9.639404296875,5.375244140625
0.181,5.375244140625,-9.158935546875,3.773681640625
0.1815,6.656494140625,-9.078857421875,2.492431640625
0.182,7.417236328125,-8.398193359375,1.051025390625
0.1825,8.057861328125,-7.317138671875,-0.790771484375
0.183,8.778564453125,-6.236083984375,-2.552490234375
0.1835,8.858642578125,-4.754638671875,-4.114013671875
0.184,8.658447265625,-3.233154296875,-5.435302734375
0.1845,8.298095703125,-1.751708984375,-6.636474609375
0.185,7.577392578125,-0.110107421875,-7.557373046875
0.1855,6.416259765625,1.891845703125,-8.278076171875
0.186,5.054931640625,3.933837890625,-8.958740234375
0.1865,3.093017578125,5.375244140625,-8.478271484375
0.187,1.771728515625,6.736572265625,-8.518310546875
0.1875,0.370361328125,7.697509765625,-8.157958984375
0.188,-1.311279296875,8.378173828125,-7.197021484375
