wavelength,x,y,z
0.0,-21.771240234375,6.776611328125,13.983642578125
0.0005,-21.050537109375,2.812744140625,17.226806640625
0.001,-19.569091796875,-1.711669921875,20.189697265625
0.0015,-17.326904296875,-5.675537109375,21.911376953125
0.002,-14.844482421875,-8.678466796875,22.632080078125
0.0025,-11.080810546875,-11.961669921875,22.351806640625
0.003,-5.755615234375,-15.965576171875,21.190673828125
0.0035,-1.591552734375,-18.648193359375,19.989501953125
0.004,3.052978515625,-20.930419921875,17.947509765625
0.0045,6.776611328125,-22.371826171875,15.905517578125
0.005,9.939697265625,-21.851318359375,12.342041015625
0.0055,13.343017578125,-21.370849609375,8.618408203125
0.006,16.906494140625,-20.489990234375,4.254150390625
0.0065,19.789306640625,-18.608154296875,-0.430419921875
0.007,21.470947265625,-16.566162109375,-4.114013671875
0.0075,22.231689453125,-13.963623046875,-7.397216796875
0.008,21.711181640625,-10.239990234375,-10.600341796875
0.0085,20.950439453125,-5.595458984375,-14.524169921875
0.009,20.189697265625,-2.031982421875,-17.326904296875
0.0095,18.628173828125,2.212158203125,-19.969482421875
0.01,16.506103515625,6.015869140625,-21.651123046875
0.0105,13.182861328125,9.018798828125,-21.490966796875
0.011,9.659423828125,12.302001953125,-21.410888671875
0.0115,4.574462890625,16.185791015625,-20.449951171875
0.012,0.010009765625,18.908447265625,-18.768310546875
0.0125,-3.833740234375,20.670166015625,-17.006591796875
0.013,-7.317138671875,21.831298828125,-14.924560546875
0.0135,-10.560302734375,21.150634765625,-11.200927734375
0.014,-14.123779296875,20.389892578125,-6.996826171875
0.0145,-17.126708984375,19.589111328125,-3.273193359375
0.015,-19.769287109375,17.627197265625,1.291259765625
0.0155,-21.170654296875,15.505126953125,4.814697265625
0.016,-21.290771484375,12.462158203125,7.937744140625
0.0165,-21.010498046875,8.818603515625,11.180908203125
0.017,-20.289794921875,4.214111328125,15.064697265625
0.0175,-19.208740234375,0.410400390625,17.787353515625
0.018,-17.647216796875,-3.353271484375,19.989501953125
0.0185,-15.725341796875,-6.756591796875,21.510986328125
0.019,-11.881591796875,-9.839599609375,20.990478515625
0.0195,-7.997802734375,-13.202880859375,20.630126953125
0.02,-3.673583984375,-16.566162109375,19.869384765625
0.0205,1.291259765625,-19.168701171875,17.827392578125
0.021,4.614501953125,-20.530029296875,16.105712890625
0.0215,7.817626953125,-21.130615234375,13.623291015625
0.022,11.060791015625,-20.610107421875,10.059814453125
0.0225,14.744384765625,-19.689208984375,5.535400390625
0.023,17.547119140625,-18.608154296875,1.811767578125
0.0235,19.789306640625,-16.806396484375,-2.232177734375
0.024,20.870361328125,-14.684326171875,-5.435302734375
0.0245,20.510009765625,-11.240966796875,-8.518310546875
0.025,20.189697265625,-7.557373046875,-11.881591796875
0.0255,19.669189453125,-3.593505859375,-15.324951171875
0.026,18.267822265625,0.650634765625,-18.007568359375
0.0265,16.506103515625,4.053955078125,-19.729248046875
0.027,14.384033203125,7.177001953125,-20.810302734375
0.0275,10.580322265625,10.300048828125,-20.289794921875
0.028,6.055908203125,13.943603515625,-19.569091796875
0.0285,2.252197265625,16.786376953125,-18.888427734375
0.029,-2.272216796875,19.148681640625,-16.966552734375
0.0295,-5.475341796875,20.349853515625,-15.164794921875
0.03,-8.518310546875,20.189697265625,-12.201904296875
0.0305,-11.641357421875,19.869384765625,-8.798583984375
0.031,-15.124755859375,18.988525390625,-4.594482421875
0.0315,-17.767333984375,17.427001953125,-0.510498046875
0.032,-19.448974609375,15.705322265625,2.932861328125
0.0325,-20.289794921875,13.383056640625,6.015869140625
0.033,-19.729248046875,9.739501953125,9.058837890625
0.0335,-19.208740234375,5.735595703125,12.502197265625
0.034,-18.808349609375,2.332275390625,15.545166015625
0.0345,-17.447021484375,-1.671630859375,18.107666015625
0.035,-15.645263671875,-4.834716796875,19.509033203125
0.0355,-13.082763671875,-7.717529296875,19.909423828125
0.036,-9.639404296875,-10.760498046875,19.709228515625
0.0365,-4.954833984375,-14.323974609375,18.828369140625
0.037,-0.950927734375,-16.926513671875,17.627197265625
0.0375,2.732666015625,-18.848388671875,16.145751953125
0.038,5.775634765625,-19.809326171875,14.263916015625
0.0385,8.858642578125,-19.328857421875,10.860595703125
0.039,12.101806640625,-18.928466796875,7.337158203125
0.0395,15.224853515625,-18.287841796875,3.733642578125
0.04,17.667236328125,-16.646240234375,-0.430419921875
0.0405,18.948486328125,-14.964599609375,-3.353271484375
0.041,19.348876953125,-12.362060546875,-6.276123046875
0.0415,18.948486328125,-8.998779296875,-9.279052734375
0.042,18.468017578125,-4.954833984375,-12.722412109375
0.0425,17.827392578125,-1.591552734375,-15.445068359375
0.043,16.586181640625,2.052001953125,-17.807373046875
0.0435,14.744384765625,5.094970703125,-19.088623046875
0.044,11.541259765625,7.977783203125,-18.888427734375
0.0445,8.137939453125,11.220947265625,-18.888427734375
0.045,3.973876953125,14.584228515625,-18.247802734375
0.0455,-0.430419921875,17.026611328125,-16.606201171875
0.046,-3.433349609375,18.548095703125,-15.324951171875
0.0465,-6.396240234375,19.268798828125,-13.242919921875
0.047,-9.439208984375,18.828369140625,-9.879638671875
0.0475,-12.802490234375,18.227783203125,-6.075927734375
0.048,-15.605224609375,17.467041015625,-2.632568359375
0.0485,-17.847412109375,15.785400390625,1.291259765625
0.049,-18.848388671875,13.903564453125,4.093994140625
0.0495,-18.848388671875,10.860595703125,7.056884765625
0.05,-18.608154296875,7.497314453125,10.260009765625
0.0505,-18.247802734375,3.733642578125,13.663330078125
0.051,-17.206787109375,0.050048828125,16.305908203125
0.0515,-15.885498046875,-3.193115234375,18.227783203125
0.052,-13.963623046875,-6.115966796875,19.308837890625
0.0525,-10.440185546875,-9.118896484375,18.828369140625
0.053,-6.596435546875,-12.482177734375,18.548095703125
0.0535,-2.632568359375,-15.525146484375,17.867431640625
0.054,1.691650390625,-17.807373046875,16.065673828125
0.0545,4.494384765625,-18.928466796875,14.664306640625
0.055,7.537353515625,-19.208740234375,12.021728515625
0.0555,10.700439453125,-18.728271484375,8.538330078125
0.056,13.943603515625,-18.167724609375,4.774658203125
0.0565,16.666259765625,-17.006591796875,0.970947265625
0.057,18.588134765625,-15.405029296875,-2.592529296875
0.0575,19.228759765625,-13.162841796875,-5.395263671875
0.058,18.868408203125,-9.639404296875,-8.478271484375
0.0585,18.508056640625,-6.075927734375,-11.721435546875
0.059,18.187744140625,-2.512451171875,-14.884521484375
0.0595,16.706298828125,1.451416015625,-17.326904296875
0.06,15.104736328125,4.454345703125,-18.768310546875
0.0605,12.662353515625,7.377197265625,-19.368896484375
0.061,8.818603515625,10.580322265625,-18.928466796875
0.0615,4.774658203125,13.823486328125,-18.287841796875
0.062,0.770751953125,16.626220703125,-17.286865234375
0.0625,-3.193115234375,18.708251953125,-15.645263671875
0.063,-5.955810546875,19.348876953125,-13.763427734375
0.0635,-9.078857421875,19.148681640625,-10.560302734375
0.064,-12.322021484375,18.628173828125,-6.916748046875
0.0645,-15.324951171875,17.867431640625,-3.273193359375
0.065,-17.727294921875,16.185791015625,0.770751953125
0.0655,-19.168701171875,14.424072265625,3.853759765625
0.066,-19.448974609375,11.821533203125,6.776611328125
0.0665,-18.928466796875,8.017822265625,10.059814453125
0.067,-18.447998046875,4.414306640625,13.142822265625
0.0675,-17.807373046875,0.810791015625,16.105712890625
0.068,-16.285888671875,-3.072998046875,18.427978515625
0.0685,-14.404052734375,-5.755615234375,19.268798828125
0.069,-11.481201171875,-8.678466796875,19.428955078125
0.0695,-7.477294921875,-12.041748046875,18.948486328125
0.07,-3.353271484375,-15.084716796875,18.107666015625
0.0705,0.810791015625,-17.447021484375,16.546142578125
0.071,4.134033203125,-19.128662109375,15.144775390625
0.0715,6.896728515625,-19.408935546875,12.782470703125
0.072,10.059814453125,-18.928466796875,9.299072265625
0.0725,13.262939453125,-18.447998046875,5.735595703125
0.073,16.145751953125,-17.406982421875,1.931884765625
0.0735,18.307861328125,-15.685302734375,-2.031982421875
0.074,19.148681640625,-13.763427734375,-4.674560546875
0.0745,19.188720703125,-10.760498046875,-7.677490234375
0.075,18.628173828125,-6.876708984375,-11.040771484375
0.0755,18.187744140625,-3.473388671875,-13.963623046875
0.076,17.146728515625,0.210205078125,-16.486083984375
0.0765,15.705322265625,3.693603515625,-18.568115234375
0.077,13.383056640625,6.416259765625,-19.088623046875
0.0775,10.059814453125,9.379150390625,-18.888427734375
0.078,6.135986328125,12.782470703125,-18.528076171875
0.0785,2.052001953125,15.745361328125,-17.607177734375
0.079,-1.991943359375,17.787353515625,-15.885498046875
0.0795,-4.834716796875,19.028564453125,-14.484130859375
0.08,-7.717529296875,19.148681640625,-11.841552734375
0.0805,-11.000732421875,18.427978515625,-8.037841796875
0.081,-13.923583984375,17.947509765625,-4.754638671875
0.0815,-16.606201171875,16.666259765625,-0.910888671875
0.082,-18.608154296875,14.944580078125,2.852783203125
0.0825,-18.968505859375,12.662353515625,5.495361328125
0.083,-18.848388671875,9.419189453125,8.578369140625
0.0835,-18.407958984375,5.575439453125,11.901611328125
0.084,-17.927490234375,2.092041015625,14.904541015625
0.0845,-16.566162109375,-1.511474609375,17.146728515625
0.085,-15.204833984375,-4.554443359375,18.908447265625
0.0855,-12.562255859375,-7.397216796875,19.228759765625
0.086,-8.838623046875,-10.560302734375,18.748291015625
0.0865,-5.114990234375,-13.603271484375,18.307861328125
0.087,-0.790771484375,-16.526123046875,17.066650390625
0.0875,3.052978515625,-18.447998046875,15.425048828125
0.088,5.655517578125,-19.088623046875,13.663330078125
0.0885,8.698486328125,-19.088623046875,10.740478515625
0.089,12.181884765625,-18.447998046875,6.696533203125
0.0895,15.024658203125,-17.807373046875,3.333251953125
0.09,17.346923828125,-16.325927734375,-0.470458984375
0.0905,19.108642578125,-14.604248046875,-3.833740234375
0.091,19.108642578125,-11.801513671875,-6.556396484375
0.0915,18.828369140625,-8.278076171875,-9.799560546875
0.092,18.427978515625,-4.674560546875,-12.962646484375
0.0925,17.707275390625,-0.990966796875,-16.005615234375
0.093,16.145751953125,2.732666015625,-18.087646484375
0.0935,14.384033203125,5.535400390625,-19.168701171875
0.094,11.421142578125,8.498291015625,-19.328857421875
0.0945,7.056884765625,12.101806640625,-18.728271484375
0.095,3.533447265625,14.904541015625,-18.127685546875
0.0955,-0.870849609375,17.467041015625,-16.646240234375
0.096,-4.474365234375,19.268798828125,-15.124755859375
0.0965,-7.116943359375,19.308837890625,-12.642333984375
0.097,-10.199951171875,19.068603515625,-9.519287109375
0.0975,-13.723388671875,18.508056640625,-5.515380859375
0.098,-16.526123046875,17.346923828125,-1.631591796875
0.0985,-18.528076171875,15.705322265625,2.052001953125
0.099,-19.729248046875,13.743408203125,5.094970703125
0.0995,-19.529052734375,10.540283203125,8.097900390625
0.1,-19.048583984375,6.416259765625,11.741455078125
0.1005,-18.568115234375,3.133056640625,14.544189453125
0.101,-17.567138671875,-0.790771484375,17.346923828125
0.1015,-15.845458984375,-4.434326171875,19.348876953125
0.102,-13.483154296875,-7.036865234375,19.709228515625
0.1025,-10.400146484375,-10.039794921875,19.749267578125
0.103,-5.715576171875,-13.803466796875,18.988525390625
0.1035,-1.671630859375,-16.526123046875,17.907470703125
0.104,2.252197265625,-18.568115234375,16.305908203125
0.1045,5.615478515625,-20.129638671875,14.744384765625
0.105,8.498291015625,-19.809326171875,11.581298828125
0.1055,11.821533203125,-19.288818359375,7.857666015625
0.106,15.064697265625,-18.728271484375,4.334228515625
0.1065,17.867431640625,-17.246826171875,0.050048828125
0.107,19.629150390625,-15.405029296875,-3.553466796875
0.1075,20.149658203125,-12.962646484375,-6.396240234375
0.108,19.909423828125,-9.639404296875,-9.479248046875
0.1085,19.228759765625,-5.155029296875,-13.242919921875
0.109,18.588134765625,-1.791748046875,-16.005615234375
0.1095,17.226806640625,1.971923828125,-18.367919921875
0.11,15.505126953125,5.495361328125,-20.249755859375
0.1105,12.221923828125,8.378173828125,-19.929443359375
0.111,8.778564453125,11.541259765625,-19.809326171875
0.1115,4.334228515625,15.184814453125,-19.208740234375
0.112,-0.350341796875,17.907470703125,-17.607177734375
0.1125,-3.833740234375,19.549072265625,-16.005615234375
0.113,-6.996826171875,20.469970703125,-13.963623046875
0.1135,-10.119873046875,20.029541015625,-10.560302734375
0.114,-13.763427734375,19.228759765625,-6.156005859375
0.1145,-16.566162109375,18.508056640625,-2.712646484375
0.115,-19.088623046875,16.706298828125,1.531494140625
0.1155,-20.489990234375,14.704345703125,4.974853515625
0.116,-20.409912109375,11.541259765625,7.977783203125
0.1165,-20.169677734375,7.977783203125,11.180908203125
0.117,-19.529052734375,3.733642578125,14.784423828125
0.1175,-18.407958984375,-0.190185546875,17.587158203125
0.118,-16.726318359375,-3.713623046875,19.509033203125
0.1185,-14.924560546875,-6.916748046875,20.990478515625
0.119,-11.200927734375,-9.959716796875,20.429931640625
0.1195,-6.956787109375,-13.443115234375,19.869384765625
0.12,-2.992919921875,-16.526123046875,19.188720703125
0.1205,1.851806640625,-19.128662109375,17.226806640625
0.121,5.215087890625,-20.489990234375,15.425048828125
0.1215,8.258056640625,-20.730224609375,12.782470703125
0.122,11.501220703125,-20.289794921875,9.339111328125
0.1225,15.144775390625,-19.328857421875,4.814697265625
0.123,17.907470703125,-18.087646484375,0.930908203125
0.1235,19.949462890625,-16.365966796875,-2.912841796875
0.124,21.070556640625,-14.123779296875,-6.115966796875
0.1245,20.510009765625,-10.440185546875,-9.239013671875
0.125,20.029541015625,-6.556396484375,-12.682373046875
0.1255,19.509033203125,-2.832763671875,-15.885498046875
0.126,18.067626953125,1.491455078125,-18.648193359375
0.1265,16.105712890625,4.934814453125,-20.209716796875
0.127,13.703369140625,8.017822265625,-21.010498046875
0.1275,9.939697265625,11.180908203125,-20.570068359375
0.128,5.054931640625,14.984619140625,-19.689208984375
0.1285,1.211181640625,17.667236328125,-18.728271484375
0.129,-3.273193359375,19.909423828125,-16.886474609375
0.1295,-6.556396484375,21.030517578125,-14.924560546875
0.13,-9.759521484375,20.670166015625,-11.481201171875
0.1305,-12.962646484375,20.189697265625,-7.917724609375
0.131,-16.365966796875,19.268798828125,-3.713623046875
0.1315,-19.088623046875,17.467041015625,0.850830078125
0.132,-20.610107421875,15.505126953125,4.214111328125
0.1325,-21.290771484375,12.982666015625,7.377197265625
0.133,-20.650146484375,8.978759765625,10.700439453125
0.1335,-19.929443359375,4.694580078125,14.263916015625
0.134,-19.248779296875,1.131103515625,17.146728515625
0.1345,-17.687255859375,-3.072998046875,19.789306640625
0.135,-15.565185546875,-6.356201171875,21.030517578125
0.1355,-12.482177734375,-9.359130859375,21.070556640625
0.136,-8.798583984375,-12.602294921875,20.750244140625
0.1365,-3.793701171875,-16.285888671875,19.669189453125
0.137,0.770751953125,-18.848388671875,17.947509765625
0.1375,4.414306640625,-20.570068359375,16.265869140625
0.138,7.657470703125,-21.330810546875,14.063720703125
0.1385,10.980712890625,-20.570068359375,10.099853515625
0.139,14.263916015625,-19.889404296875,6.256103515625
0.1395,17.346923828125,-19.008544921875,2.372314453125
0.14,19.949462890625,-17.006591796875,-2.272216796875
0.1405,21.030517578125,-14.924560546875,-5.355224609375
0.141,21.190673828125,-11.881591796875,-8.518310546875
0.1415,20.630126953125,-7.997802734375,-11.841552734375
0.142,19.869384765625,-3.713623046875,-15.324951171875
0.1425,18.748291015625,0.210205078125,-18.047607421875
0.143,17.146728515625,4.013916015625,-20.289794921875
0.1435,14.864501953125,7.257080078125,-21.330810546875
0.144,10.980712890625,10.540283203125,-20.850341796875
0.1445,7.016845703125,13.863525390625,-20.489990234375
0.145,2.452392578125,17.266845703125,-19.569091796875
0.1455,-2.432373046875,19.789306640625,-17.406982421875
0.146,-5.715576171875,21.070556640625,-15.725341796875
0.1465,-8.918701171875,21.470947265625,-13.082763671875
0.147,-12.362060546875,20.670166015625,-8.998779296875
0.1475,-15.725341796875,19.789306640625,-4.834716796875
0.148,-18.608154296875,18.548095703125,-0.790771484375
0.1485,-20.890380859375,16.426025390625,3.613525390625
0.149,-21.611083984375,14.063720703125,6.656494140625
0.1495,-21.370849609375,10.300048828125,10.099853515625
0.15,-20.770263671875,6.256103515625,13.543212890625
0.1505,-20.049560546875,2.132080078125,16.946533203125
0.151,-18.447998046875,-2.112060546875,19.509033203125
0.1515,-16.646240234375,-5.635498046875,21.310791015625
0.152,-14.083740234375,-8.798583984375,22.031494140625
0.1525,-9.679443359375,-12.322021484375,21.270751953125
0.153,-5.395263671875,-15.685302734375,20.510009765625
0.1535,-0.790771484375,-18.728271484375,19.348876953125
0.154,4.013916015625,-21.010498046875,17.146728515625
0.1545,7.056884765625,-21.771240234375,15.064697265625
0.155,10.420166015625,-21.771240234375,11.821533203125
0.1555,14.103759765625,-20.890380859375,7.377197265625
0.156,17.306884765625,-19.889404296875,3.253173828125
0.1565,20.069580078125,-18.167724609375,-1.191162109375
0.157,21.951416015625,-16.045654296875,-5.114990234375
0.1575,22.151611328125,-13.122802734375,-8.197998046875
0.158,21.631103515625,-8.958740234375,-11.841552734375
0.1585,20.830322265625,-4.834716796875,-15.124755859375
0.159,20.069580078125,-0.750732421875,-18.407958984375
0.1595,17.987548828125,3.693603515625,-20.770263671875
0.16,15.825439453125,6.976806640625,-21.971435546875
0.1605,12.702392578125,10.219970703125,-22.291748046875
0.161,7.937744140625,13.863525390625,-21.410888671875
0.1615,3.533447265625,17.146728515625,-20.409912109375
0.162,-1.271240234375,19.909423828125,-18.768310546875
0.1625,-5.595458984375,21.951416015625,-16.686279296875
0.163,-8.558349609375,22.191650390625,-14.123779296875
0.1635,-12.081787109375,21.791259765625,-10.320068359375
0.164,-15.645263671875,20.870361328125,-6.035888671875
0.1645,-18.728271484375,19.589111328125,-1.711669921875
0.165,-21.130615234375,17.467041015625,2.812744140625
0.1655,-22.491943359375,15.184814453125,6.376220703125
0.166,-22.451904296875,11.821533203125,9.659423828125
0.1665,-21.771240234375,7.217041015625,13.463134765625
0.167,-20.890380859375,3.253173828125,16.626220703125
0.1675,-19.769287109375,-0.990966796875,19.709228515625
0.168,-17.647216796875,-5.275146484375,21.911376953125
0.1685,-15.084716796875,-8.318115234375,22.471923828125
0.169,-11.521240234375,-11.681396484375,22.431884765625
0.1695,-6.596435546875,-15.445068359375,21.551025390625
0.17,-2.031982421875,-18.528076171875,20.269775390625
0.1705,2.692626953125,-20.850341796875,18.187744140625
0.171,6.576416015625,-22.531982421875,16.265869140625
0.1715,9.739501953125,-22.411865234375,13.102783203125
0.172,13.343017578125,-21.731201171875,8.938720703125
0.1725,16.826416015625,-20.850341796875,4.774658203125
0.173,19.989501953125,-19.288818359375,0.130126953125
0.1735,22.151611328125,-17.046630859375,-4.274169921875
0.174,22.832275390625,-14.484130859375,-7.477294921875
0.1745,22.632080078125,-10.800537109375,-10.920654296875
0.175,21.791259765625,-5.915771484375,-14.924560546875
0.1755,20.870361328125,-2.072021484375,-17.887451171875
0.176,19.268798828125,2.252197265625,-20.530029296875
0.1765,17.226806640625,6.336181640625,-22.732177734375
0.177,13.903564453125,9.459228515625,-22.652099609375
0.1775,10.019775390625,12.942626953125,-22.371826171875
0.178,5.014892578125,16.786376953125,-21.490966796875
0.1785,0.130126953125,19.869384765625,-19.969482421875
0.179,-4.394287109375,21.871337890625,-17.767333984375
0.1795,-7.917724609375,23.072509765625,-15.645263671875
0.18,-11.361083984375,22.752197265625,-12.001708984375
0.1805,-15.204833984375,21.671142578125,-7.237060546875
0.181,-18.327880859375,20.790283203125,-3.353271484375
