wavelength,x,y,z
0.0,10.2099609375,-20.5,10.73046875
0.0005,13.453125,-20.01953125,7.046875
0.001,16.896484375,-18.5380859375,2.3623046875
0.0015,19.69921875,-16.576171875,-2.4423828125
0.002,20.7802734375,-14.734375,-5.28515625
0.0025,21.2607421875,-12.33203125,-8.087890625
0.003,20.8603515625,-8.9287109375,-11.291015625
0.0035,19.8994140625,-4.1640625,-14.974609375
0.004,18.578125,0.0400390625,-17.8974609375
0.0045,16.9765625,4.00390625,-20.2998046875
0.005,14.654296875,6.806640625,-20.7802734375
0.0055,11.8115234375,9.689453125,-20.98046875
0.006,7.6474609375,13.373046875,-20.5
0.0065,2.2021484375,16.8564453125,-18.7783203125
0.007,-2.8427734375,19.5390625,-16.736328125
0.0075,-6.1259765625,20.98046875,-15.1748046875
0.008,-8.9287109375,21.30078125,-12.9326171875
0.0085,-11.9716796875,20.7802734375,-9.6494140625
0.009,-15.4951171875,19.69921875,-5.125
0.0095,-18.658203125,18.017578125,-0.400390625
0.01,-21.060546875,16.015625,4.083984375
0.0105,-21.62109375,13.8134765625,6.7666015625
0.011,-21.8212890625,11.0107421875,9.8896484375
0.0115,-21.30078125,6.8466796875,13.453125
0.012,-20.01953125,2.2421875,16.8564453125
0.0125,-18.2978515625,-2.2021484375,19.5390625
0.013,-16.65625,-5.765625,21.541015625
0.0135,-14.1337890625,-8.4482421875,21.7412109375
0.014,-10.650390625,-11.4912109375,21.4208984375
0.0145,-5.845703125,-15.2548828125,20.4599609375
0.015,-0.4404296875,-18.4580078125,18.5380859375
0.0155,4.2841796875,-20.740234375,16.3359375
0.016,7.1669921875,-21.5009765625,14.5341796875
0.0165,10.08984375,-21.7412109375,12.01171875
0.017,13.4130859375,-20.900390625,8.0478515625
0.0175,16.736328125,-19.4990234375,3.4033203125
0.018,19.7392578125,-17.5771484375,-1.361328125
0.0185,21.701171875,-15.5751953125,-5.28515625
0.019,21.78125,-13.0927734375,-7.84765625
0.0195,21.7412109375,-10.009765625,-10.9306640625
0.02,20.9404296875,-5.4853515625,-14.654296875
0.0205,19.4990234375,-1.041015625,-17.697265625
0.021,17.5771484375,3.203125,-20.01953125
0.0215,15.6953125,6.3662109375,-21.30078125
0.022,13.0927734375,9.0888671875,-21.5009765625
0.0225,8.96875,12.412109375,-20.8203125
0.023,4.1240234375,15.85546875,-19.5791015625
0.0235,-1.201171875,18.9384765625,-17.6572265625
0.024,-5.28515625,20.8203125,-15.6953125
0.0245,-7.84765625,21.1005859375,-13.6533203125
0.025,-10.6904296875,21.1806640625,-11.130859375
0.0255,-14.25390625,20.099609375,-6.7666015625
0.026,-17.296875,18.5380859375,-2.2421875
0.0265,-19.939453125,16.6962890625,2.2822265625
0.027,-21.5009765625,14.7744140625,5.685546875
0.0275,-21.5009765625,12.171875,8.2880859375
0.028,-21.2607421875,8.6484375,11.6513671875
0.0285,-20.2998046875,4.1240234375,15.21484375
0.029,-18.9384765625,-0.400390625,18.337890625
0.0295,-17.0966796875,-4.2841796875,20.4599609375
0.03,-15.0546875,-6.9267578125,21.140625
0.0305,-12.4521484375,-9.849609375,21.4609375
0.031,-7.607421875,-13.61328125,20.5400390625
0.0315,-2.8427734375,-16.65625,18.9384765625
0.032,2.2021484375,-19.4189453125,17.0966796875
0.0325,5.8857421875,-21.140625,15.3349609375
0.033,8.408203125,-21.140625,12.9326171875
0.0335,11.37109375,-21.140625,10.1298828125
0.034,15.294921875,-19.8994140625,5.3251953125
0.0345,18.2978515625,-18.177734375,0.6806640625
0.035,20.580078125,-16.3759765625,-3.443359375
0.0355,21.62109375,-14.3740234375,-6.4462890625
0.036,21.6611328125,-11.53125,-9.2890625
0.0365,21.140625,-7.287109375,-13.1328125
0.037,19.9794921875,-3.04296875,-16.17578125
0.0375,18.4580078125,1.5615234375,-19.21875
0.038,16.576171875,5.2451171875,-21.1005859375
0.0385,14.013671875,7.8076171875,-21.140625
0.039,11.2109375,10.7705078125,-21.4208984375
0.0395,5.685546875,14.9345703125,-20.1796875
0.04,0.6806640625,17.8974609375,-18.337890625
0.0405,-3.7236328125,20.1396484375,-16.5361328125
0.041,-7.046875,21.4208984375,-14.734375
0.0415,-9.689453125,21.140625,-12.0517578125
0.042,-12.8525390625,20.7001953125,-8.568359375
0.0425,-16.3759765625,19.458984375,-3.9638671875
0.043,-19.4990234375,17.4169921875,1.0810546875
0.0435,-21.220703125,15.4951171875,4.724609375
0.044,-21.6611328125,13.212890625,7.4873046875
0.0445,-21.701171875,10.2900390625,10.41015625
0.045,-20.8203125,5.3251953125,14.57421875
0.0455,-19.4189453125,1.201171875,17.296875
0.046,-17.8173828125,-2.962890625,19.859375
0.0465,-15.8955078125,-6.40625,21.4208984375
0.047,-13.0126953125,-8.96875,21.140625
0.0475,-9.8095703125,-11.931640625,20.98046875
0.048,-4.404296875,-15.8154296875,19.6591796875
0.0485,0.9208984375,-18.7783203125,17.5771484375
0.049,4.64453125,-20.4599609375,15.7353515625
0.0495,7.52734375,-21.2607421875,13.8134765625
0.05,10.330078125,-21.0205078125,11.130859375
0.0505,13.93359375,-20.01953125,6.6865234375
0.051,16.9365234375,-18.6982421875,2.5224609375
0.0515,19.8193359375,-16.81640625,-2.2421875
0.052,21.1806640625,-14.89453125,-5.4853515625
0.0525,21.1806640625,-12.2919921875,-8.0478515625
0.053,21.1806640625,-9.369140625,-11.05078125
0.0535,20.1396484375,-4.3642578125,-15.0546875
0.054,18.578125,0.0,-17.857421875
0.0545,16.9765625,3.5234375,-19.7392578125
0.055,15.0546875,6.646484375,-21.0205078125
0.0555,12.0517578125,9.3291015625,-20.8203125
0.056,7.6875,12.892578125,-20.099609375
0.0565,3.123046875,16.0556640625,-18.8984375
0.057,-2.1220703125,19.0185546875,-16.8564453125
0.0575,-5.4052734375,20.2998046875,-15.134765625
0.058,-7.9677734375,20.580078125,-13.052734375
0.0585,-10.650390625,20.6201171875,-10.5703125
0.059,-14.6943359375,19.21875,-5.365234375
0.0595,-17.45703125,17.6171875,-1.1611328125
0.06,-19.779296875,15.9755859375,2.8427734375
0.0605,-20.98046875,14.09375,5.8857421875
0.061,-20.7001953125,11.2509765625,8.4482421875
0.0615,-20.5400390625,7.7275390625,11.8515625
0.062,-19.5390625,3.3232421875,15.3349609375
0.0625,-18.017578125,-1.2412109375,18.337890625
0.063,-16.2958984375,-4.484375,19.859375
0.0635,-14.4140625,-7.0869140625,20.66015625
0.064,-11.5712890625,-9.9296875,20.740234375
0.0645,-6.166015625,-14.013671875,19.4990234375
0.065,-1.7216796875,-16.81640625,18.0576171875
0.0655,2.8427734375,-19.4189453125,16.3359375
0.066,6.0458984375,-20.5400390625,14.654296875
0.0665,8.6484375,-20.419921875,12.091796875
0.067,11.53125,-20.33984375,9.2890625
0.0675,15.4951171875,-19.05859375,4.244140625
0.068,18.498046875,-17.1767578125,-0.6005859375
0.0685,20.2197265625,-15.5751953125,-3.84375
0.069,21.060546875,-13.533203125,-6.7265625
0.0695,20.8203125,-10.5703125,-9.4892578125
0.07,20.2197265625,-6.0458984375,-13.453125
0.0705,19.138671875,-2.08203125,-16.3359375
0.071,17.6572265625,2.2822265625,-19.21875
0.0715,15.6552734375,5.4453125,-20.4599609375
0.072,13.0927734375,8.0478515625,-20.5400390625
0.0725,10.169921875,11.0107421875,-20.7001953125
0.073,4.32421875,15.294921875,-19.21875
0.0735,-0.720703125,18.09765625,-17.376953125
0.074,-4.404296875,20.099609375,-15.775390625
0.0745,-7.4873046875,21.060546875,-13.9736328125
0.075,-10.2900390625,20.66015625,-10.890625
0.0755,-13.5732421875,19.9794921875,-7.20703125
0.076,-16.9365234375,18.6982421875,-2.642578125
0.0765,-19.8994140625,16.6162109375,2.3623046875
0.077,-21.0205078125,14.734375,5.28515625
0.0775,-21.4208984375,12.2919921875,8.0478515625
0.078,-21.220703125,9.208984375,11.05078125
0.0785,-20.1796875,3.9638671875,15.294921875
0.079,-18.658203125,-0.2802734375,18.017578125
0.0795,-17.216796875,-4.0439453125,20.3798828125
0.08,-15.134765625,-7.0869140625,21.380859375
0.0805,-11.931640625,-9.8896484375,20.98046875
0.081,-8.328125,-13.1328125,20.740234375
0.0815,-2.8427734375,-16.81640625,19.05859375
0.082,2.5224609375,-19.5390625,16.896484375
0.0825,5.5654296875,-20.7001953125,15.21484375
0.083,8.5283203125,-21.3408203125,13.1328125
0.0835,11.4912109375,-20.900390625,9.9697265625
0.084,15.2548828125,-19.6591796875,5.0849609375
0.0845,18.2578125,-18.2177734375,0.7607421875
0.085,20.7802734375,-16.2958984375,-3.7236328125
0.0855,21.4609375,-14.173828125,-6.40625
0.086,21.380859375,-11.2509765625,-9.2890625
0.0865,21.1005859375,-7.8876953125,-12.412109375
0.087,19.859375,-2.9228515625,-16.17578125
0.0875,18.0576171875,1.681640625,-18.9384765625
0.088,16.416015625,4.8447265625,-20.5
0.0885,14.25390625,7.7275390625,-21.380859375
0.089,10.7705078125,10.5703125,-20.8203125
0.0895,6.0458984375,14.333984375,-19.9794921875
0.09,1.201171875,17.537109375,-18.4580078125
0.0905,-3.84375,20.099609375,-16.3359375
0.091,-6.6064453125,20.8203125,-14.494140625
0.0915,-9.369140625,21.060546875,-12.171875
0.092,-12.3720703125,20.6201171875,-8.96875
0.0925,-16.095703125,19.05859375,-3.8037109375
0.093,-18.978515625,17.2568359375,0.8408203125
0.0935,-20.8603515625,15.4951171875,4.404296875
0.094,-21.4208984375,13.29296875,7.1669921875
0.0945,-21.1005859375,10.0498046875,10.08984375
0.095,-20.5,6.0458984375,13.5732421875
0.0955,-19.37890625,1.5615234375,16.896484375
0.096,-17.6171875,-2.9228515625,19.5791015625
0.0965,-15.6953125,-5.8056640625,20.6201171875
0.097,-13.533203125,-8.6083984375,21.2607421875
0.0975,-9.9296875,-11.611328125,20.740234375
0.098,-4.3642578125,-15.455078125,19.2587890625
0.0985,0.48046875,-18.41796875,17.5771484375
0.099,4.64453125,-20.5,15.8154296875
0.0995,7.3671875,-21.0205078125,13.853515625
0.1,10.2900390625,-20.900390625,11.0107421875
0.1005,13.4931640625,-20.33984375,7.4072265625
0.101,16.9365234375,-18.7783203125,2.6025390625
0.1015,19.69921875,-16.81640625,-2.1220703125
0.102,20.98046875,-15.0546875,-5.125
0.1025,21.4609375,-12.65234375,-7.9677734375
0.103,21.0205078125,-9.1689453125,-11.0908203125
0.1035,20.01953125,-4.5244140625,-14.7744140625
0.104,18.7783203125,-0.3203125,-17.7373046875
0.1045,17.13671875,3.84375,-20.259765625
0.105,14.8544921875,6.646484375,-20.8203125
0.1055,12.251953125,9.4091796875,-21.1005859375
0.106,8.16796875,12.9326171875,-20.6201171875
0.1065,2.72265625,16.49609375,-18.9384765625
0.107,-2.2822265625,19.2587890625,-16.9765625
0.1075,-5.7255859375,20.8603515625,-15.4150390625
0.108,-8.48828125,21.220703125,-13.1728515625
0.1085,-11.4912109375,20.8203125,-9.9697265625
0.109,-15.0146484375,19.859375,-5.6455078125
0.1095,-18.2177734375,18.2177734375,-1.0009765625
0.11,-20.7001953125,16.2158203125,3.5234375
0.1105,-21.4208984375,14.1337890625,6.24609375
0.111,-21.6611328125,11.451171875,9.208984375
0.1115,-21.140625,7.52734375,12.6923828125
0.112,-19.8994140625,2.8427734375,16.1357421875
0.1125,-18.337890625,-1.6015625,18.9384765625
0.113,-16.65625,-5.205078125,21.0205078125
0.1135,-14.25390625,-7.927734375,21.2607421875
0.114,-11.0908203125,-10.7705078125,21.1005859375
0.1145,-6.486328125,-14.494140625,20.3798828125
0.115,-1.1611328125,-17.8173828125,18.498046875
0.1155,3.68359375,-20.1396484375,16.3759765625
0.116,6.56640625,-21.140625,14.6943359375
0.1165,9.4892578125,-21.4208984375,12.2919921875
0.117,12.65234375,-20.740234375,8.6484375
0.1175,16.095703125,-19.458984375,4.083984375
0.118,19.138671875,-17.697265625,-0.6806640625
0.1185,21.220703125,-15.775390625,-4.64453125
0.119,21.4208984375,-13.4130859375,-7.20703125
0.1195,21.4609375,-10.4501953125,-10.25
0.12,20.7802734375,-6.1259765625,-13.9736328125
0.1205,19.4189453125,-1.6416015625,-17.0966796875
0.121,17.6171875,2.6826171875,-19.5791015625
0.1215,15.85546875,5.92578125,-21.140625
0.122,13.29296875,8.6884765625,-21.3408203125
0.1225,9.529296875,11.8515625,-20.8203125
0.123,4.724609375,15.4150390625,-19.7392578125
0.1235,-0.6005859375,18.5380859375,-17.9375
0.124,-4.724609375,20.5400390625,-15.9755859375
0.1245,-7.3671875,21.0205078125,-13.9736328125
0.125,-10.2900390625,21.1005859375,-11.451171875
0.1255,-13.8935546875,20.1396484375,-7.0869140625
0.126,-16.9765625,18.658203125,-2.5625
0.1265,-19.779296875,16.7763671875,2.0419921875
0.127,-21.4208984375,14.89453125,5.4853515625
0.1275,-21.4208984375,12.33203125,8.0478515625
0.128,-21.220703125,9.0087890625,11.2109375
0.1285,-20.259765625,4.484375,14.7744140625
0.129,-18.8984375,0.080078125,17.8974609375
0.1295,-17.056640625,-3.923828125,20.099609375
0.13,-15.0947265625,-6.7265625,20.9404296875
0.1305,-12.5322265625,-9.5693359375,21.30078125
0.131,-8.0078125,-13.1328125,20.4599609375
0.1315,-3.203125,-16.255859375,18.9384765625
0.132,1.76171875,-19.138671875,17.13671875
0.1325,5.4853515625,-20.7802734375,15.375
0.133,7.927734375,-20.8203125,13.1328125
0.1335,10.810546875,-20.8203125,10.5302734375
0.134,14.57421875,-19.7392578125,5.765625
0.1345,17.5771484375,-18.09765625,1.28125
0.135,20.01953125,-16.2958984375,-2.9228515625
0.1355,21.1005859375,-14.3740234375,-5.92578125
0.136,21.1806640625,-11.611328125,-8.6884765625
0.1365,20.7802734375,-7.84765625,-12.2119140625
0.137,19.69921875,-3.603515625,-15.4150390625
0.1375,18.2177734375,0.9609375,-18.41796875
0.138,16.49609375,4.5244140625,-20.2998046875
0.1385,14.1337890625,7.046875,-20.580078125
0.139,11.611328125,9.9296875,-20.9404296875
0.1395,6.40625,14.013671875,-19.8994140625
0.14,1.521484375,16.9365234375,-18.2578125
0.1405,-3.04296875,19.4990234375,-16.416015625
0.141,-6.3662109375,20.8603515625,-14.7744140625
0.1415,-8.9287109375,20.7001953125,-12.2919921875
0.142,-11.8916015625,20.419921875,-9.208984375
0.1425,-15.455078125,19.21875,-4.564453125
0.143,-18.5380859375,17.3369140625,0.2802734375
0.1435,-20.5,15.53515625,4.00390625
0.144,-21.140625,13.4130859375,6.7265625
0.1445,-21.1806640625,10.5302734375,9.689453125
0.145,-20.5400390625,5.8857421875,13.7333984375
0.1455,-19.2587890625,1.921875,16.5361328125
0.146,-17.8173828125,-2.3623046875,19.2587890625
0.1465,-16.015625,-5.8056640625,20.9404296875
0.147,-13.4130859375,-8.2880859375,20.8203125
0.1475,-10.41015625,-11.2509765625,20.8203125
0.148,-5.0048828125,-15.134765625,19.5390625
0.1485,0.240234375,-18.1376953125,17.5771484375
0.149,4.1240234375,-20.01953125,15.85546875
0.1495,7.0869140625,-21.0205078125,14.0537109375
0.15,9.9296875,-20.8603515625,11.3310546875
0.1505,13.4130859375,-20.01953125,7.20703125
0.151,16.49609375,-18.7783203125,3.04296875
0.1515,19.458984375,-16.9765625,-1.76171875
0.152,20.98046875,-15.0947265625,-5.0849609375
0.1525,21.060546875,-12.65234375,-7.6474609375
0.153,21.1005859375,-9.76953125,-10.6103515625
0.1535,20.1396484375,-4.6845703125,-14.6943359375
0.154,18.6181640625,-0.5205078125,-17.45703125
0.1545,17.056640625,3.203125,-19.5791015625
0.155,15.294921875,6.40625,-20.900390625
0.1555,12.2119140625,8.96875,-20.66015625
0.156,8.2880859375,12.412109375,-20.1796875
0.1565,3.6435546875,15.775390625,-18.978515625
0.157,-1.76171875,18.73828125,-16.9365234375
0.1575,-5.125,20.1396484375,-15.21484375
0.158,-7.767578125,20.5400390625,-13.1728515625
0.1585,-10.5302734375,20.580078125,-10.650390625
0.159,-14.4140625,19.3388671875,-5.60546875
0.1595,-17.2568359375,17.8173828125,-1.521484375
0.16,-19.69921875,16.1357421875,2.5625
0.1605,-20.8203125,14.2138671875,5.6455078125
0.161,-20.6201171875,11.451171875,8.16796875
0.1615,-20.5,8.16796875,11.37109375
0.162,-19.5390625,3.5634765625,15.0146484375
0.1625,-18.017578125,-1.0009765625,17.9775390625
0.163,-16.2958984375,-4.1640625,19.619140625
0.1635,-14.3740234375,-6.88671875,20.5
0.164,-11.5712890625,-9.6494140625,20.5
0.1645,-6.56640625,-13.4931640625,19.458984375
0.165,-2.2021484375,-16.3759765625,18.0576171875
0.1655,2.5224609375,-18.978515625,16.3359375
0.166,5.685546875,-20.2197265625,14.57421875
0.1665,8.248046875,-20.2197265625,12.171875
0.167,11.0107421875,-20.259765625,9.6494140625
0.1675,14.9345703125,-18.9384765625,4.564453125
0.168,17.9375,-17.1767578125,0.0
0.1685,19.779296875,-15.6953125,-3.36328125
0.169,20.66015625,-13.7333984375,-6.24609375
0.1695,20.4599609375,-10.810546875,-8.888671875
0.17,19.9794921875,-6.6064453125,-12.65234375
0.1705,18.9384765625,-2.6826171875,-15.6552734375
0.171,17.537109375,1.76171875,-18.578125
0.1715,15.7353515625,4.9248046875,-19.8994140625
0.172,13.4130859375,7.4873046875,-20.1796875
0.1725,10.5302734375,10.3701171875,-20.33984375
0.173,4.8046875,14.5341796875,-18.9384765625
0.1735,0.1201171875,17.3369140625,-17.296875
0.174,-3.8037109375,19.458984375,-15.7353515625
0.1745,-6.7265625,20.4599609375,-13.9736328125
0.175,-9.5693359375,20.1396484375,-11.130859375
0.1755,-12.5322265625,19.6591796875,-7.8876953125
0.176,-15.8955078125,18.41796875,-3.36328125
0.1765,-18.8583984375,16.4560546875,1.521484375
0.177,-20.1396484375,14.734375,4.4443359375
0.1775,-20.66015625,12.5322265625,7.1669921875
0.178,-20.5400390625,9.609375,9.9296875
0.1785,-19.69921875,4.64453125,14.09375
0.179,-18.41796875,0.7607421875,16.7763671875
0.1795,-17.0166015625,-3.0830078125,19.2587890625
0.18,-15.134765625,-6.0859375,20.4599609375
0.1805,-12.2919921875,-8.6884765625,20.2197265625
0.181,-9.048828125,-11.8115234375,20.1796875
0.1815,-3.5634765625,-15.6552734375,18.6982421875
0.182,1.6015625,-18.4580078125,16.6162109375
0.1825,4.64453125,-19.939453125,15.134765625
0.183,7.6875,-20.5400390625,13.2529296875
0.1835,10.3701171875,-20.259765625,10.3701171875
0.184,13.8134765625,-19.37890625,5.9658203125
0.1845,16.9365234375,-18.0576171875,1.76171875
0.185,19.5791015625,-16.17578125,-2.72265625
0.1855,20.4599609375,-14.2138671875,-5.4453125
0.186,20.5400390625,-11.5712890625,-8.2080078125
0.1865,20.5400390625,-8.48828125,-11.2509765625
0.187,19.3388671875,-3.5234375,-15.0947265625
0.1875,17.7373046875,0.8408203125,-17.8974609375
0.188,16.2958984375,4.083984375,-19.5791015625
0.1885,14.25390625,6.966796875,-20.5400390625
0.189,11.0908203125,9.6494140625,-20.1796875
0.1895,6.7265625,13.2529296875,-19.5390625
0.19,1.921875,16.49609375,-18.1376953125
0.1905,-3.123046875,19.1787109375,-16.015625
0.191,-5.92578125,20.01953125,-14.4541015625
0.1915,-8.6083984375,20.4599609375,-12.251953125
0.192,-11.53125,20.0595703125,-9.4091796875
0.1925,-15.2548828125,18.73828125,-4.3642578125
0.193,-18.1376953125,17.13671875,0.0400390625
0.1935,-20.1796875,15.4951171875,3.8037109375
0.194,-20.8603515625,13.4130859375,6.5263671875
0.1945,-20.580078125,10.3701171875,9.3291015625
0.195,-20.2197265625,6.6064453125,12.732421875
0.1955,-19.1787109375,2.2021484375,16.17578125
0.196,-17.4970703125,-2.4423828125,19.0185546875
0.1965,-15.6953125,-5.4052734375,20.2197265625
0.197,-13.6533203125,-8.16796875,21.0205078125
0.1975,-10.2099609375,-11.1708984375,20.5400390625
0.198,-4.884765625,-14.89453125,19.2587890625
0.1985,-0.2802734375,-17.9375,17.7373046875
0.199,4.1240234375,-20.1396484375,15.935546875
0.1995,6.88671875,-20.7001953125,13.9736328125
0.2,9.7294921875,-20.7001953125,11.291015625
0.2005,12.9326171875,-20.2197265625,7.84765625
0.201,16.4560546875,-18.658203125,3.04296875
0.2015,19.37890625,-16.736328125,-1.921875
0.202,20.7802734375,-15.0947265625,-5.0048828125
0.2025,21.30078125,-12.732421875,-7.7275390625
0.203,20.98046875,-9.369140625,-10.7705078125
0.2035,20.01953125,-4.884765625,-14.3740234375
0.204,18.7783203125,-0.720703125,-17.4169921875
0.2045,17.13671875,3.603515625,-19.9794921875
0.205,14.89453125,6.40625,-20.66015625
0.2055,12.3720703125,9.2490234375,-21.060546875
0.206,8.3681640625,12.5322265625,-20.5400390625
0.2065,3.0029296875,16.2158203125,-18.9384765625
0.207,-1.9619140625,19.05859375,-16.9365234375
0.2075,-5.5654296875,20.580078125,-15.4150390625
0.208,-8.16796875,20.98046875,-13.1728515625
0.2085,-11.05078125,20.5400390625,-10.2099609375
0.209,-14.4140625,19.6591796875,-6.005859375
0.2095,-17.5771484375,17.9775390625,-1.44140625
0.21,-20.1396484375,15.9755859375,3.203125
0.2105,-21.0205078125,13.9736328125,5.9658203125
0.211,-21.1806640625,11.451171875,8.888671875
0.2115,-20.8203125,7.767578125,12.0517578125
0.212,-19.5390625,3.123046875,15.53515625
0.2125,-18.0576171875,-1.201171875,18.2578125
0.213,-16.49609375,-4.8046875,20.419921875
0.2135,-14.09375,-7.4072265625,20.7802734375
0.214,-11.1708984375,-10.169921875,20.7001953125
0.2145,-7.0068359375,-13.8134765625,20.0595703125
0.215,-1.6416015625,-16.896484375,18.2978515625
0.2155,3.0029296875,-19.4990234375,16.2158203125
0.216,5.92578125,-20.5400390625,14.6142578125
0.2165,8.6884765625,-20.8203125,12.3720703125
0.217,11.69140625,-20.2998046875,9.0087890625
0.2175,15.0546875,-19.0986328125,4.5244140625
0.218,18.0576171875,-17.537109375,0.0
