wavelength,x,y,z
0.0,20.810302734375,6.115966796875,-26.756103515625
0.0005,15.124755859375,11.881591796875,-26.836181640625
0.001,10.400146484375,17.046630859375,-27.236572265625
0.0015,6.556396484375,20.009521484375,-26.395751953125
0.002,0.830810546875,23.332763671875,-24.033447265625
0.0025,-4.334228515625,25.294677734375,-20.990478515625
0.003,-9.459228515625,27.136474609375,-17.867431640625
0.0035,-15.064697265625,27.176513671875,-12.422119140625
0.004,-18.748291015625,26.335693359375,-8.017822265625
0.0045,-21.591064453125,26.095458984375,-5.054931640625
0.005,-24.473876953125,23.132568359375,0.790771484375
0.0055,-26.315673828125,20.329833984375,5.435302734375
0.006,-26.555908203125,15.405029296875,10.560302734375
0.0065,-27.156494140625,10.760498046875,15.765380859375
0.007,-25.755126953125,6.356201171875,18.808349609375
0.0075,-24.674072265625,2.112060546875,21.971435546875
0.008,-21.791259765625,-3.213134765625,24.293701171875
0.0085,-19.268798828125,-8.378173828125,26.896240234375
0.009,-13.343017578125,-14.063720703125,26.495849609375
0.0095,-8.978759765625,-18.387939453125,26.455810546875
0.01,-5.415283203125,-21.070556640625,25.614990234375
0.0105,0.630615234375,-24.073486328125,22.772216796875
0.011,5.475341796875,-25.875244140625,19.769287109375
0.0115,11.200927734375,-27.156494140625,15.485107421875
0.012,16.125732421875,-27.276611328125,10.920654296875
0.0125,19.569091796875,-26.235595703125,6.556396484375
0.013,22.291748046875,-25.434814453125,3.072998046875
0.0135,25.014404296875,-22.552001953125,-2.572509765625
0.014,26.816162109375,-19.388916015625,-7.497314453125
0.0145,26.335693359375,-13.783447265625,-12.662353515625
0.015,26.856201171875,-9.859619140625,-17.066650390625
0.0155,25.534912109375,-5.615478515625,-19.989501953125
0.016,23.893310546875,-0.930908203125,-22.992431640625
0.0165,20.970458984375,4.354248046875,-25.194580078125
0.017,17.447021484375,9.999755859375,-27.316650390625
0.0175,11.801513671875,15.164794921875,-26.756103515625
0.018,7.517333984375,19.208740234375,-26.435791015625
0.0185,3.593505859375,21.651123046875,-25.034423828125
0.019,-2.612548828125,24.814208984375,-22.191650390625
0.0195,-7.497314453125,26.415771484375,-19.068603515625
0.02,-13.543212890625,26.936279296875,-13.623291015625
0.0205,-17.346923828125,27.056396484375,-10.139892578125
0.021,-20.790283203125,25.895263671875,-5.615478515625
0.0215,-23.192626953125,24.333740234375,-1.691650390625
0.022,-25.594970703125,21.290771484375,3.753662109375
0.0225,-27.236572265625,17.447021484375,9.198974609375
0.023,-26.235595703125,11.561279296875,14.123779296875
0.0235,-26.635986328125,8.157958984375,17.967529296875
0.024,-25.154541015625,3.793701171875,20.730224609375
0.0245,-23.192626953125,-1.331298828125,23.853271484375
0.025,-20.149658203125,-6.456298828125,25.775146484375
0.0255,-15.385009765625,-12.742431640625,27.176513671875
0.026,-10.500244140625,-16.946533203125,26.575927734375
0.0265,-6.256103515625,-20.630126953125,26.015380859375
0.027,-1.931884765625,-22.672119140625,23.853271484375
0.0275,3.993896484375,-25.675048828125,21.130615234375
0.028,9.279052734375,-27.116455078125,17.366943359375
0.0285,15.204833984375,-26.996337890625,11.601318359375
0.029,18.287841796875,-27.156494140625,8.678466796875
0.0295,21.851318359375,-25.795166015625,3.833740234375
0.03,24.213623046875,-23.753173828125,-0.570556640625
0.0305,26.055419921875,-20.550048828125,-5.575439453125
0.031,27.456787109375,-16.025634765625,-11.501220703125
0.0315,26.215576171875,-10.500244140625,-15.785400390625
0.032,26.335693359375,-7.177001953125,-19.188720703125
0.0325,24.373779296875,-2.732666015625,-21.631103515625
0.033,22.411865234375,2.552490234375,-24.874267578125
0.0335,18.768310546875,7.717529296875,-26.395751953125
0.034,13.443115234375,14.043701171875,-27.236572265625
0.0345,9.198974609375,17.607177734375,-26.595947265625
0.035,4.554443359375,21.290771484375,-25.635009765625
0.0355,-0.290283203125,23.332763671875,-22.912353515625
0.036,-5.495361328125,25.855224609375,-20.429931640625
0.0365,-11.381103515625,27.016357421875,-15.865478515625
0.037,-16.265869140625,26.415771484375,-10.540283203125
0.0375,-19.188720703125,26.535888671875,-7.777587890625
0.038,-22.431884765625,24.654052734375,-2.812744140625
0.0385,-24.754150390625,22.451904296875,1.791748046875
0.039,-25.875244140625,18.888427734375,6.436279296875
0.0395,-26.996337890625,13.883544921875,12.522216796875
0.04,-25.795166015625,8.958740234375,16.285888671875
0.0405,-25.755126953125,5.435302734375,19.729248046875
0.041,-23.392822265625,0.790771484375,21.931396484375
0.0415,-21.591064453125,-4.214111328125,25.014404296875
0.042,-17.106689453125,-9.739501953125,25.975341796875
0.0425,-11.861572265625,-15.425048828125,26.415771484375
0.043,-8.338134765625,-18.508056640625,26.015380859375
0.0435,-3.333251953125,-21.911376953125,24.413818359375
0.044,1.591552734375,-24.033447265625,21.731201171875
0.0445,6.356201171875,-25.955322265625,19.128662109375
0.045,12.682373046875,-26.996337890625,13.923583984375
0.0455,16.846435546875,-26.235595703125,9.118896484375
0.046,20.009521484375,-26.515869140625,6.356201171875
0.0465,23.012451171875,-24.113525390625,1.031005859375
0.047,25.414794921875,-21.871337890625,-3.613525390625
0.0475,25.975341796875,-17.747314453125,-8.338134765625
0.048,26.856201171875,-12.742431640625,-14.223876953125
0.0485,25.775146484375,-8.378173828125,-17.467041015625
0.049,25.334716796875,-4.454345703125,-20.990478515625
0.0495,22.772216796875,0.470458984375,-23.232666015625
0.05,20.810302734375,5.435302734375,-26.075439453125
0.0505,15.405029296875,11.361083984375,-26.595947265625
0.051,10.320068359375,16.526123046875,-26.595947265625
0.0515,6.996826171875,19.609130859375,-26.395751953125
0.052,1.071044921875,22.972412109375,-23.873291015625
0.0525,-4.013916015625,25.134521484375,-21.150634765625
0.053,-8.858642578125,26.575927734375,-17.867431640625
0.0535,-14.864501953125,27.216552734375,-12.662353515625
0.054,-18.427978515625,26.055419921875,-8.097900390625
0.0545,-21.631103515625,26.015380859375,-4.934814453125
0.055,-24.273681640625,23.132568359375,0.630615234375
0.0555,-26.315673828125,20.489990234375,5.355224609375
0.056,-26.315673828125,15.445068359375,10.280029296875
0.0565,-26.916259765625,10.680419921875,15.685302734375
0.057,-25.795166015625,6.556396484375,18.648193359375
0.0575,-24.553955078125,1.791748046875,22.091552734375
0.058,-21.911376953125,-3.052978515625,24.213623046875
0.0585,-19.268798828125,-8.177978515625,26.615966796875
0.059,-13.503173828125,-13.863525390625,26.575927734375
0.0595,-8.778564453125,-18.187744140625,26.095458984375
0.06,-5.495361328125,-21.030517578125,25.695068359375
0.0605,0.710693359375,-24.033447265625,22.612060546875
0.061,5.475341796875,-25.915283203125,19.889404296875
0.0615,10.760498046875,-26.676025390625,15.445068359375
0.062,16.005615234375,-27.316650390625,11.040771484375
0.0625,19.248779296875,-25.995361328125,6.556396484375
0.063,22.371826171875,-25.354736328125,2.912841796875
0.0635,24.814208984375,-22.511962890625,-2.412353515625
0.064,26.615966796875,-19.509033203125,-7.177001953125
0.0645,26.015380859375,-13.983642578125,-12.101806640625
0.065,26.415771484375,-9.859619140625,-16.706298828125
0.0655,25.494873046875,-6.095947265625,-19.509033203125
0.066,23.613037109375,-0.930908203125,-22.752197265625
0.0665,21.090576171875,3.833740234375,-24.834228515625
0.067,17.487060546875,9.319091796875,-26.595947265625
0.0675,12.241943359375,14.564208984375,-26.635986328125
0.068,7.557373046875,18.528076171875,-25.795166015625
0.0685,3.953857421875,21.210693359375,-24.994384765625
0.069,-2.252197265625,24.253662109375,-21.911376953125
0.0695,-6.896728515625,26.095458984375,-19.268798828125
0.07,-12.542236328125,26.055419921875,-13.783447265625
0.0705,-16.666259765625,26.696044921875,-10.380126953125
0.071,-19.949462890625,25.494873046875,-6.015869140625
0.0715,-22.752197265625,24.133544921875,-1.931884765625
0.072,-24.914306640625,21.170654296875,3.193115234375
0.0725,-26.555908203125,17.647216796875,8.318115234375
0.073,-25.635009765625,11.961669921875,13.082763671875
0.0735,-25.915283203125,8.157958984375,17.166748046875
0.074,-24.994384765625,4.474365234375,19.889404296875
0.0745,-22.872314453125,-1.010986328125,23.132568359375
0.075,-20.229736328125,-5.695556640625,25.134521484375
0.0755,-15.385009765625,-11.581298828125,26.095458984375
0.076,-11.020751953125,-16.025634765625,26.215576171875
0.0765,-6.416259765625,-19.709228515625,25.294677734375
0.077,-2.452392578125,-22.031494140625,23.693115234375
0.0775,3.433349609375,-24.874267578125,20.810302734375
0.078,8.518310546875,-26.635986328125,17.647216796875
0.0785,14.083740234375,-26.115478515625,11.681396484375
0.079,17.607177734375,-26.635986328125,8.838623046875
0.0795,20.970458984375,-25.474853515625,4.394287109375
0.08,23.693115234375,-23.633056640625,-0.250244140625
0.0805,25.454833984375,-20.429931640625,-5.094970703125
0.081,26.776123046875,-16.185791015625,-10.700439453125
0.0815,25.775146484375,-10.900634765625,-15.024658203125
0.082,25.695068359375,-7.136962890625,-18.628173828125
0.0825,24.373779296875,-3.293212890625,-21.110595703125
0.083,22.171630859375,2.352294921875,-24.433837890625
0.0835,18.968505859375,7.357177734375,-26.195556640625
0.084,13.403076171875,13.363037109375,-26.555908203125
0.0845,9.639404296875,17.166748046875,-26.555908203125
0.085,4.674560546875,20.890380859375,-25.354736328125
0.0855,-0.090087890625,23.172607421875,-23.032470703125
0.086,-5.335205078125,25.574951171875,-20.269775390625
0.0865,-11.140869140625,27.056396484375,-16.105712890625
0.087,-15.865478515625,26.055419921875,-10.540283203125
0.0875,-19.108642578125,26.335693359375,-7.697509765625
0.088,-22.191650390625,24.694091796875,-3.052978515625
0.0885,-24.834228515625,22.531982421875,1.791748046875
0.089,-25.875244140625,18.808349609375,6.436279296875
0.0895,-26.796142578125,13.843505859375,12.362060546875
0.09,-25.875244140625,9.198974609375,16.085693359375
0.0905,-25.474853515625,5.114990234375,19.729248046875
0.091,-23.552978515625,0.950927734375,21.931396484375
0.0915,-21.470947265625,-4.334228515625,25.054443359375
0.092,-17.266845703125,-9.859619140625,26.255615234375
0.0925,-11.661376953125,-15.385009765625,26.095458984375
0.093,-8.458251953125,-18.508056640625,26.135498046875
0.0935,-3.213134765625,-21.911376953125,24.373779296875
0.094,1.751708984375,-24.193603515625,21.851318359375
0.0945,6.396240234375,-25.915283203125,18.968505859375
0.095,12.722412109375,-27.156494140625,14.083740234375
0.0955,16.646240234375,-26.035400390625,9.118896484375
0.096,20.049560546875,-26.275634765625,6.075927734375
0.0965,22.772216796875,-24.073486328125,1.231201171875
0.097,25.414794921875,-21.951416015625,-3.573486328125
0.0975,25.935302734375,-17.787353515625,-8.258056640625
0.098,26.335693359375,-12.542236328125,-13.903564453125
0.0985,25.655029296875,-8.698486328125,-17.026611328125
0.099,24.854248046875,-4.254150390625,-20.670166015625
0.0995,22.732177734375,0.150146484375,-22.872314453125
0.1,20.610107421875,5.034912109375,-25.514892578125
0.1005,15.645263671875,11.040771484375,-26.515869140625
0.101,10.239990234375,15.845458984375,-25.875244140625
0.1015,7.237060546875,19.048583984375,-26.075439453125
0.102,1.431396484375,22.171630859375,-23.472900390625
0.1025,-3.533447265625,24.654052734375,-21.190673828125
0.103,-8.017822265625,25.775146484375,-17.907470703125
0.1035,-14.143798828125,26.656005859375,-12.822509765625
0.104,-17.427001953125,25.494873046875,-8.458251953125
0.1045,-20.990478515625,25.534912109375,-5.054931640625
0.105,-23.312744140625,22.932373046875,-0.250244140625
0.1055,-25.594970703125,20.489990234375,4.514404296875
0.106,-25.835205078125,15.765380859375,9.479248046875
0.1065,-25.955322265625,10.680419921875,14.684326171875
0.107,-25.554931640625,7.357177734375,17.607177734375
0.1075,-24.073486328125,2.272216796875,21.170654296875
0.108,-22.031494140625,-2.212158203125,23.452880859375
0.1085,-19.388916015625,-7.096923828125,25.655029296875
0.109,-14.103759765625,-13.102783203125,26.335693359375
0.1095,-8.978759765625,-17.226806640625,25.334716796875
0.11,-5.935791015625,-20.349853515625,25.494873046875
0.1105,0.030029296875,-23.192626953125,22.451904296875
0.111,4.834716796875,-25.635009765625,20.209716796875
0.1115,9.879638671875,-26.195556640625,15.845458984375
0.112,15.445068359375,-26.956298828125,11.240966796875
0.1125,18.568115234375,-25.835205078125,7.116943359375
0.113,22.251708984375,-25.314697265625,2.872802734375
0.1135,24.493896484375,-22.672119140625,-1.971923828125
0.114,26.455810546875,-19.829345703125,-6.736572265625
0.1145,26.215576171875,-14.384033203125,-11.901611328125
0.115,26.055419921875,-9.659423828125,-16.506103515625
0.1155,25.614990234375,-6.376220703125,-19.348876953125
0.116,23.653076171875,-0.770751953125,-22.872314453125
0.1165,21.370849609375,3.913818359375,-25.194580078125
0.117,17.647216796875,9.239013671875,-26.676025390625
0.1175,12.522216796875,14.844482421875,-27.156494140625
0.118,7.397216796875,18.688232421875,-25.835205078125
0.1185,3.673583984375,21.851318359375,-25.314697265625
0.119,-2.532470703125,24.734130859375,-22.151611328125
0.1195,-7.417236328125,26.936279296875,-19.669189453125
0.12,-12.942626953125,26.615966796875,-13.943603515625
0.1205,-17.427001953125,27.136474609375,-10.139892578125
0.121,-20.469970703125,25.935302734375,-5.935791015625
0.1215,-23.873291015625,24.413818359375,-1.171142578125
0.122,-25.835205078125,21.490966796875,3.833740234375
0.1225,-27.396728515625,17.927490234375,8.918701171875
0.123,-26.635986328125,12.161865234375,13.923583984375
0.1235,-26.235595703125,7.677490234375,18.007568359375
0.124,-25.594970703125,4.194091796875,20.770263671875
0.1245,-23.152587890625,-1.771728515625,24.213623046875
0.125,-20.590087890625,-6.536376953125,26.255615234375
0.1255,-15.385009765625,-12.221923828125,26.776123046875
0.126,-10.980712890625,-16.946533203125,27.056396484375
0.1265,-5.975830078125,-20.469970703125,25.614990234375
0.127,-1.811767578125,-23.112548828125,24.173583984375
0.1275,4.154052734375,-25.715087890625,20.970458984375
0.128,9.239013671875,-27.636962890625,17.967529296875
0.1285,14.724365234375,-26.756103515625,11.721435546875
0.129,18.407958984375,-27.036376953125,8.438232421875
0.1295,21.490966796875,-25.955322265625,4.354248046875
0.13,24.614013671875,-23.873291015625,-0.810791015625
0.1305,26.175537109375,-20.630126953125,-5.655517578125
0.131,27.216552734375,-16.385986328125,-10.900634765625
0.1315,26.455810546875,-11.180908203125,-15.385009765625
0.132,25.695068359375,-6.776611328125,-18.988525390625
0.1325,24.734130859375,-3.333251953125,-21.430908203125
0.133,22.291748046875,2.552490234375,-24.754150390625
0.1335,19.448974609375,7.517333984375,-26.756103515625
0.134,13.643310546875,13.202880859375,-26.635986328125
0.1345,9.799560546875,17.286865234375,-26.836181640625
0.135,4.874755859375,20.770263671875,-25.434814453125
0.1355,0.030029296875,23.412841796875,-23.312744140625
0.136,-5.295166015625,25.614990234375,-20.389892578125
0.1365,-10.900634765625,27.376708984375,-16.626220703125
0.137,-15.705322265625,26.295654296875,-10.980712890625
0.1375,-19.148681640625,26.255615234375,-7.617431640625
0.138,-21.911376953125,24.974365234375,-3.693603515625
0.1385,-24.994384765625,22.852294921875,1.591552734375
0.139,-26.195556640625,19.208740234375,6.436279296875
0.1395,-26.876220703125,14.243896484375,12.041748046875
0.14,-26.315673828125,9.759521484375,16.005615234375
0.1405,-25.474853515625,5.275146484375,19.569091796875
0.141,-23.993408203125,1.351318359375,21.971435546875
0.1415,-21.751220703125,-4.174072265625,25.134521484375
0.142,-17.907470703125,-9.859619140625,26.896240234375
0.1425,-12.021728515625,-15.184814453125,26.295654296875
0.143,-8.658447265625,-18.548095703125,26.415771484375
0.1435,-3.533447265625,-21.871337890625,24.614013671875
0.144,1.671630859375,-24.593994140625,22.291748046875
0.1445,6.476318359375,-26.235595703125,19.208740234375
0.145,12.842529296875,-27.677001953125,14.404052734375
0.1455,16.886474609375,-26.595947265625,9.479248046875
0.146,20.409912109375,-26.515869140625,5.795654296875
0.1465,23.052490234375,-24.473876953125,1.311279296875
0.147,26.015380859375,-22.271728515625,-3.853759765625
0.1475,26.776123046875,-17.987548828125,-8.858642578125
0.148,26.856201171875,-12.662353515625,-14.303955078125
0.1485,26.335693359375,-8.898681640625,-17.587158203125
0.149,25.134521484375,-3.973876953125,-21.190673828125
0.1495,23.172607421875,0.390380859375,-23.512939453125
0.15,20.810302734375,5.475341796875,-26.195556640625
0.1505,15.965576171875,11.721435546875,-27.476806640625
0.151,10.239990234375,16.406005859375,-26.475830078125
0.1515,6.996826171875,19.769287109375,-26.515869140625
0.152,1.271240234375,22.812255859375,-23.913330078125
0.1525,-4.013916015625,25.614990234375,-21.631103515625
0.153,-8.658447265625,26.575927734375,-18.107666015625
0.1535,-14.904541015625,27.416748046875,-12.862548828125
0.154,-18.187744140625,26.215576171875,-8.658447265625
0.1545,-21.831298828125,25.815185546875,-4.534423828125
0.155,-23.953369140625,23.332763671875,0.070068359375
0.1555,-26.435791015625,20.930419921875,4.994873046875
0.156,-26.876220703125,15.965576171875,10.320068359375
0.1565,-26.595947265625,10.640380859375,15.364990234375
0.157,-26.195556640625,7.317138671875,18.327880859375
0.1575,-24.393798828125,1.951904296875,21.811279296875
0.158,-22.431884765625,-2.532470703125,24.213623046875
0.1585,-19.629150390625,-7.457275390625,26.255615234375
0.159,-14.343994140625,-13.783447265625,27.216552734375
0.1595,-9.058837890625,-17.707275390625,25.895263671875
0.16,-5.735595703125,-20.950439453125,25.815185546875
0.1605,0.150146484375,-23.552978515625,22.732177734375
0.161,5.114990234375,-26.235595703125,20.489990234375
0.1615,9.999755859375,-26.756103515625,16.205810546875
0.162,15.845458984375,-27.396728515625,11.160888671875
0.1625,18.768310546875,-26.275634765625,7.357177734375
0.163,22.491943359375,-25.354736328125,2.712646484375
0.1635,24.533935546875,-22.792236328125,-1.891845703125
0.164,26.575927734375,-20.069580078125,-6.576416015625
0.1645,26.656005859375,-14.744384765625,-12.021728515625
0.165,26.095458984375,-9.739501953125,-16.506103515625
0.1655,25.855224609375,-6.576416015625,-19.308837890625
0.166,23.572998046875,-0.970947265625,-22.552001953125
0.1665,21.651123046875,3.593505859375,-25.114501953125
0.167,17.967529296875,8.638427734375,-26.395751953125
0.1675,12.842529296875,14.644287109375,-27.236572265625
0.168,7.797607421875,18.247802734375,-25.755126953125
0.1685,3.873779296875,21.490966796875,-25.154541015625
0.169,-2.052001953125,24.013427734375,-22.031494140625
0.1695,-6.736572265625,26.455810546875,-19.869384765625
0.17,-12.101806640625,26.295654296875,-14.544189453125
0.1705,-16.906494140625,26.736083984375,-10.219970703125
0.171,-19.749267578125,25.855224609375,-6.656494140625
0.1715,-23.192626953125,24.173583984375,-1.531494140625
0.172,-25.074462890625,21.490966796875,3.032958984375
0.1725,-26.595947265625,18.127685546875,7.837646484375
0.173,-26.515869140625,12.802490234375,13.162841796875
0.1735,-25.715087890625,7.997802734375,17.166748046875
0.174,-25.354736328125,4.754638671875,20.049560546875
0.1745,-22.752197265625,-1.131103515625,23.212646484375
0.175,-20.870361328125,-5.615478515625,25.655029296875
0.1755,-15.905517578125,-11.020751953125,26.095458984375
0.176,-11.381103515625,-16.225830078125,26.776123046875
0.1765,-6.736572265625,-19.509033203125,25.414794921875
0.177,-2.252197265625,-22.552001953125,23.933349609375
0.1775,3.393310546875,-24.914306640625,20.850341796875
0.178,8.278076171875,-27.156494140625,18.247802734375
0.1785,13.803466796875,-26.555908203125,12.442138671875
0.179,17.887451171875,-26.635986328125,8.558349609375
0.1795,20.730224609375,-25.915283203125,5.114990234375
0.18,24.013427734375,-23.713134765625,-0.410400390625
0.1805,25.815185546875,-20.790283203125,-5.135009765625
