wavelength,x,y,z
0.0,-17.171752929688,25.469848632812,-8.7635498046875
0.0005,-20.374877929688,24.989379882812,-5.2801513671875
0.001,-23.497924804688,22.426879882812,0.3253173828125
0.0015,-25.940307617188,20.264770507812,4.9698486328125
0.002,-26.420776367188,16.621215820312,9.0938720703125
0.0025,-26.901245117188,11.936645507812,14.338989257812
0.003,-25.499877929688,7.3721923828125,17.421997070312
0.0035,-24.338745117188,2.7276611328125,20.865356445312
0.004,-21.495971679688,-2.4373779296875,23.147583007812
0.0045,-19.614135742188,-7.2020263671875,25.950317382812
0.005,-14.689331054688,-12.447143554688,26.190551757812
0.0055,-9.7645263671875,-16.931518554688,25.750122070312
0.006,-6.1209716796875,-19.734252929688,24.909301757812
0.0065,0.0050048828125,-23.057495117188,22.226684570312
0.007,4.8497314453125,-25.179565429688,19.584106445312
0.0075,9.4542236328125,-26.420776367188,16.421020507812
0.008,14.939575195312,-27.061401367188,11.776489257812
0.0085,18.382934570312,-25.579956054688,6.8917236328125
0.009,21.546020507812,-24.939331054688,3.1680908203125
0.0095,24.268676757812,-22.136596679688,-2.3172607421875
0.01,26.590942382812,-19.894409179688,-6.7615966796875
0.0105,26.190551757812,-15.249877929688,-11.045776367188
0.011,26.550903320312,-10.805541992188,-15.890502929688
0.0115,24.989379882812,-6.5213623046875,-18.573120117188
0.012,23.387817382812,-1.4364013671875,-22.056518554688
0.0125,20.585083007812,3.5684814453125,-24.178588867188
0.013,17.942504882812,8.4932861328125,-26.380737304688
0.0135,12.977661132812,13.538208007812,-26.380737304688
0.014,7.9727783203125,17.662231445312,-25.459838867188
0.0145,4.3692626953125,20.304809570312,-24.498901367188
0.015,-1.9168701171875,23.347778320312,-21.455932617188
0.0155,-6.2811279296875,25.389770507812,-19.213745117188
0.016,-11.326049804688,25.750122070312,-14.689331054688
0.0165,-15.850463867188,26.230590820312,-10.885620117188
0.017,-19.053588867188,24.468872070312,-6.0809326171875
0.0175,-22.176635742188,23.427856445312,-1.9969482421875
0.018,-24.538940429688,20.585083007812,3.2481689453125
0.0185,-26.620971679688,18.182739257812,7.6925048828125
0.019,-25.700073242188,13.177856445312,11.856567382812
0.0195,-25.780151367188,8.9337158203125,16.220825195312
0.02,-24.378784179688,5.0098876953125,18.703247070312
0.0205,-22.296752929688,-0.5955810546875,22.106567382812
0.021,-19.894409179688,-5.1199951171875,24.228637695312
0.0215,-16.170776367188,-10.285034179688,25.589965820312
0.022,-11.886596679688,-14.729370117188,25.670043945312
0.0225,-6.9217529296875,-18.372924804688,24.348754882812
0.023,-3.1180419921875,-20.935424804688,23.067504882812
0.0235,2.9278564453125,-23.818237304688,20.104614257812
0.024,7.3721923828125,-25.900268554688,17.902465820312
0.0245,12.577270507812,-25.660034179688,12.617309570312
0.025,16.501098632812,-26.060424804688,9.2139892578125
0.0255,19.544067382812,-24.538940429688,4.7296142578125
0.026,22.707153320312,-23.057495117188,0.2452392578125
0.0265,24.869262695312,-20.254760742188,-4.6795654296875
0.027,26.510864257812,-17.171752929688,-9.4041748046875
0.0275,25.630004882812,-12.206909179688,-13.568237304688
0.028,25.309692382812,-7.9627685546875,-17.492065429688
0.0285,23.948364257812,-4.1190185546875,-19.934448242188
0.029,21.666137695312,1.7266845703125,-23.377807617188
0.0295,19.103637695312,6.4512939453125,-25.499877929688
0.03,14.298950195312,11.976684570312,-26.100463867188
0.0305,10.295043945312,16.020629882812,-26.180541992188
0.031,5.3302001953125,19.504028320312,-24.699096679688
0.0315,0.7657470703125,22.066528320312,-22.737182617188
0.032,-4.7996826171875,24.709106445312,-20.014526367188
0.0325,-10.084838867188,26.630981445312,-16.811401367188
0.033,-14.809448242188,25.830200195312,-11.486206054688
0.0335,-18.453002929688,25.830200195312,-8.0428466796875
0.034,-21.536010742188,24.108520507812,-3.1981201171875
0.0345,-24.538940429688,22.026489257812,1.8468017578125
0.035,-26.260620117188,19.063598632812,6.4913330078125
0.0355,-27.301635742188,14.859497070312,11.776489257812
0.036,-26.260620117188,10.014770507812,15.620239257812
0.0365,-25.379760742188,5.6104736328125,19.063598632812
0.037,-23.377807617188,1.2061767578125,21.465942382812
0.0375,-21.135620117188,-4.4393310546875,24.669067382812
0.038,-17.572143554688,-9.6444091796875,26.310668945312
0.0385,-12.447143554688,-14.729370117188,26.150512695312
0.039,-8.7235107421875,-18.172729492188,25.910278320312
0.0395,-3.4783935546875,-21.415893554688,23.908325195312
0.04,1.7667236328125,-23.738159179688,21.225708007812
0.0405,6.4913330078125,-25.900268554688,18.703247070312
0.041,12.457153320312,-27.341674804688,14.338989257812
0.0415,16.380981445312,-26.140502929688,9.3341064453125
0.042,19.704223632812,-25.740112304688,5.8507080078125
0.0425,22.546997070312,-23.578002929688,0.8858642578125
0.043,25.269653320312,-21.495971679688,-3.9188232421875
0.0435,26.310668945312,-18.052612304688,-8.3231201171875
0.044,26.711059570312,-13.328002929688,-13.488159179688
0.0445,25.750122070312,-9.1239013671875,-16.731323242188
0.045,24.468872070312,-4.5594482421875,-20.014526367188
0.0455,22.146606445312,0.0050048828125,-22.176635742188
0.046,20.104614257812,4.9698486328125,-25.019409179688
0.0465,15.780395507812,10.575317382812,-26.260620117188
0.047,10.695434570312,15.099731445312,-25.619995117188
0.0475,7.3721923828125,18.222778320312,-25.379760742188
0.048,1.9669189453125,21.265747070312,-23.097534179688
0.0485,-3.0780029296875,23.668090820312,-20.695190429688
0.049,-7.4022216796875,25.229614257812,-18.012573242188
0.0495,-13.408081054688,26.390747070312,-13.408081054688
0.05,-16.691284179688,25.069458007812,-8.9237060546875
0.0505,-20.054565429688,24.749145507812,-5.2801513671875
0.051,-22.777221679688,22.306762695312,-0.2752685546875
0.0515,-25.419799804688,20.424926757812,4.3292236328125
0.052,-26.020385742188,16.421020507812,8.9337158203125
0.0525,-26.180541992188,11.696411132812,13.778442382812
0.053,-25.499877929688,7.9727783203125,16.821411132812
0.0535,-23.978393554688,2.9678955078125,20.304809570312
0.054,-21.656127929688,-1.7967529296875,22.667114257812
0.0545,-19.494018554688,-6.5614013671875,25.269653320312
0.055,-14.809448242188,-12.367065429688,26.230590820312
0.0555,-9.7244873046875,-16.451049804688,25.229614257812
0.056,-6.4012451171875,-19.534057617188,24.989379882812
0.0565,-0.3553466796875,-22.617065429688,22.066528320312
0.057,4.6094970703125,-25.219604492188,19.864379882812
0.0575,9.2540283203125,-26.140502929688,16.180786132812
0.058,15.019653320312,-27.101440429688,11.736450195312
0.0585,18.182739257812,-25.619995117188,7.1719970703125
0.059,21.866333007812,-25.019409179688,3.0079345703125
0.0595,24.348754882812,-22.096557617188,-2.3572998046875
0.06,26.871215820312,-20.054565429688,-6.8817138671875
0.0605,26.630981445312,-15.089721679688,-11.686401367188
0.061,26.590942382812,-10.325073242188,-16.370971679688
0.0615,25.509887695312,-6.6414794921875,-19.013549804688
0.062,23.467895507812,-0.9158935546875,-22.657104492188
0.0625,20.865356445312,4.0889892578125,-24.939331054688
0.063,17.742309570312,9.1339111328125,-26.741088867188
0.0635,12.817504882812,14.619262695312,-27.261596679688
0.064,7.4923095703125,18.503051757812,-25.780151367188
0.0645,3.8087158203125,21.345825195312,-25.059448242188
0.065,-2.7176513671875,24.188598632812,-21.536010742188
0.0655,-7.2420654296875,26.510864257812,-19.534057617188
0.066,-12.527221679688,26.470825195312,-14.288940429688
0.0665,-17.171752929688,27.031372070312,-10.365112304688
0.067,-20.214721679688,25.309692382812,-5.7205810546875
0.0675,-23.698120117188,23.948364257812,-0.9559326171875
0.068,-25.780151367188,20.705200195312,4.3692626953125
0.0685,-27.742065429688,18.182739257812,8.8936767578125
0.069,-26.941284179688,12.817504882812,13.458129882812
0.0695,-26.420776367188,8.1329345703125,17.622192382812
0.07,-25.259643554688,4.4893798828125,20.144653320312
0.0705,-22.697143554688,-1.5965576171875,23.507934570312
0.071,-20.214721679688,-6.2811279296875,25.630004882812
0.0715,-15.850463867188,-11.486206054688,26.390747070312
0.072,-11.566284179688,-16.210815429688,26.831176757812
0.0725,-6.3612060546875,-19.694213867188,24.989379882812
0.073,-2.2772216796875,-22.456909179688,23.708129882812
0.0735,3.8887939453125,-24.979370117188,20.184692382812
0.074,8.4532470703125,-27.101440429688,18.062622070312
0.0745,13.778442382812,-26.540893554688,12.296997070312
0.075,17.822387695312,-26.701049804688,8.6134033203125
0.0755,20.705200195312,-25.259643554688,4.4093017578125
0.076,23.988403320312,-23.417846679688,-0.6756591796875
0.0765,25.830200195312,-20.374877929688,-5.6004638671875
0.077,27.191528320312,-16.971557617188,-10.285034179688
0.0775,26.590942382812,-12.046752929688,-14.689331054688
0.078,25.589965820312,-7.3221435546875,-18.332885742188
0.0785,24.468872070312,-3.7586669921875,-20.855346679688
0.079,21.746215820312,2.3673095703125,-24.058471679688
0.0795,19.223754882812,7.0919189453125,-26.260620117188
0.08,13.938598632812,12.497192382812,-26.260620117188
0.0805,10.094848632812,16.661254882812,-26.620971679688
0.081,5.0899658203125,19.864379882812,-24.819213867188
0.0815,0.2452392578125,22.707153320312,-22.937377929688
0.082,-5.1199951171875,24.949340820312,-19.894409179688
0.0825,-10.365112304688,26.911254882812,-16.731323242188
0.083,-15.049682617188,25.990356445312,-11.406127929688
0.0835,-18.653198242188,25.670043945312,-7.5623779296875
0.084,-21.616088867188,24.308715820312,-3.3582763671875
0.0845,-24.739135742188,22.066528320312,2.0069580078125
0.085,-26.260620117188,19.023559570312,6.6514892578125
0.0855,-26.941284179688,14.659301757812,11.656372070312
0.086,-26.500854492188,10.214965820312,15.620239257812
0.0865,-24.979370117188,5.4102783203125,18.903442382812
0.087,-23.578002929688,1.3262939453125,21.505981445312
0.0875,-21.095581054688,-4.2391357421875,24.468872070312
0.088,-17.812377929688,-9.5643310546875,26.510864257812
0.0885,-12.327026367188,-14.489135742188,25.870239257812
0.089,-8.8035888671875,-18.212768554688,25.950317382812
0.0895,-3.7987060546875,-21.255737304688,23.988403320312
0.09,1.7266845703125,-24.058471679688,21.546020507812
0.0905,6.3712158203125,-25.780151367188,18.743286132812
0.091,12.417114257812,-27.381713867188,14.459106445312
0.0915,16.340942382812,-26.300659179688,9.6544189453125
0.092,19.984497070312,-25.780151367188,5.6104736328125
0.0925,22.787231445312,-24.018432617188,1.1260986328125
0.093,25.670043945312,-21.776245117188,-3.9989013671875
0.0935,26.871215820312,-18.292846679688,-8.6834716796875
0.094,26.911254882812,-13.247924804688,-13.808471679688
0.0945,26.590942382812,-9.3641357421875,-17.331909179688
0.095,24.829223632812,-4.3192138671875,-20.655151367188
0.0955,22.787231445312,0.3653564453125,-23.217651367188
0.096,20.384887695312,5.4102783203125,-25.740112304688
0.0965,16.140747070312,11.296020507812,-27.381713867188
0.097,10.535278320312,15.900512695312,-26.300659179688
0.0975,6.9718017578125,19.343872070312,-26.220581054688
0.098,1.4063720703125,22.426879882812,-23.698120117188
0.0985,-4.0389404296875,25.229614257812,-21.255737304688
0.099,-8.4832763671875,26.390747070312,-18.092651367188
0.0995,-14.649291992188,27.511840820312,-13.207885742188
0.1,-18.052612304688,26.150512695312,-8.6834716796875
0.1005,-21.856323242188,25.429809570312,-4.1590576171875
0.101,-24.378784179688,22.867309570312,0.8858642578125
0.1015,-26.901245117188,20.625122070312,5.5704345703125
0.102,-27.501831054688,16.300903320312,10.495239257812
0.1025,-27.101440429688,11.055786132812,15.380004882812
0.103,-26.460815429688,7.3721923828125,18.422973632812
0.1035,-24.458862304688,1.7667236328125,21.986450195312
0.104,-22.056518554688,-3.1180419921875,24.348754882812
0.1045,-19.373901367188,-7.8826904296875,26.310668945312
0.105,-14.569213867188,-13.808471679688,27.391723632812
0.1055,-9.1239013671875,-17.812377929688,25.790161132812
0.106,-5.3602294921875,-21.015502929688,25.389770507812
0.1065,0.6055908203125,-23.698120117188,22.226684570312
0.107,5.6104736328125,-26.260620117188,19.904418945312
0.1075,10.335083007812,-26.781127929688,15.860473632812
0.108,15.940551757812,-27.421752929688,11.135864257812
0.1085,18.983520507812,-25.980346679688,6.8516845703125
0.109,22.747192382812,-24.899291992188,2.0469970703125
0.1095,24.869262695312,-22.136596679688,-2.8377685546875
0.11,26.911254882812,-19.854370117188,-7.1219482421875
0.1105,26.911254882812,-14.969604492188,-12.126831054688
0.111,26.190551757812,-9.8446044921875,-16.491088867188
0.1115,25.509887695312,-6.4412841796875,-19.173706054688
0.112,23.107543945312,-0.7957763671875,-22.456909179688
0.1125,20.985473632812,3.8887939453125,-24.899291992188
0.113,17.462036132812,8.6134033203125,-25.980346679688
0.1135,12.817504882812,14.178833007812,-26.981323242188
0.114,7.6925048828125,17.782348632812,-25.299682617188
0.1145,3.6485595703125,21.065551757812,-24.578979492188
0.115,-2.0770263671875,23.427856445312,-21.335815429688
0.1155,-6.4012451171875,25.790161132812,-19.574096679688
0.116,-11.526245117188,25.790161132812,-14.529174804688
0.1165,-16.210815429688,26.070434570312,-10.285034179688
0.117,-19.173706054688,24.989379882812,-6.4412841796875
0.1175,-22.777221679688,23.387817382812,-1.2762451171875
0.118,-24.859252929688,20.785278320312,3.3682861328125
0.1185,-26.380737304688,18.222778320312,7.5323486328125
0.119,-26.460815429688,13.297973632812,12.497192382812
0.1195,-25.499877929688,8.3331298828125,16.501098632812
0.12,-24.979370117188,4.9298095703125,19.343872070312
0.1205,-22.296752929688,-0.9559326171875,22.426879882812
0.121,-20.494995117188,-5.4403076171875,25.069458007812
0.1215,-15.970581054688,-10.445190429688,25.429809570312
0.122,-11.846557617188,-15.410034179688,26.310668945312
0.1225,-6.9217529296875,-18.773315429688,24.709106445312
0.123,-2.2371826171875,-22.096557617188,23.347778320312
0.1235,3.4483642578125,-24.378784179688,20.184692382812
0.124,7.9327392578125,-26.781127929688,18.182739257812
0.1245,13.297973632812,-26.340698242188,12.617309570312
0.125,17.542114257812,-26.220581054688,8.4532470703125
0.1255,20.464965820312,-25.299682617188,4.6895751953125
0.126,24.028442382812,-23.217651367188,-0.9158935546875
0.1265,25.950317382812,-20.454956054688,-5.6405029296875
0.127,26.871215820312,-16.811401367188,-10.124877929688
0.1275,26.831176757812,-12.206909179688,-14.809448242188
0.128,25.389770507812,-7.0819091796875,-18.453002929688
0.1285,24.468872070312,-3.2781982421875,-21.335815429688
0.129,21.505981445312,2.7276611328125,-24.298706054688
0.1295,19.263793945312,7.5323486328125,-26.821166992188
0.13,13.618286132812,12.777465820312,-26.260620117188
0.1305,9.6544189453125,17.221801757812,-26.620971679688
0.131,4.8096923828125,20.224731445312,-24.899291992188
0.1315,-0.6756591796875,23.467895507812,-22.777221679688
0.132,-5.7606201171875,25.309692382812,-19.614135742188
0.1325,-10.885620117188,27.071411132812,-16.411010742188
0.133,-15.530151367188,26.270629882812,-11.205932617188
0.1335,-19.293823242188,25.549926757812,-6.7615966796875
0.134,-22.096557617188,24.348754882812,-2.9178466796875
0.1345,-25.179565429688,21.866333007812,2.6475830078125
0.135,-26.821166992188,18.903442382812,7.2120361328125
0.1355,-26.741088867188,14.138793945312,11.856567382812
0.136,-26.741088867188,10.094848632812,15.980590820312
0.1365,-24.819213867188,4.9698486328125,19.143676757812
0.137,-23.417846679688,0.7257080078125,21.986450195312
0.1375,-20.735229492188,-4.6395263671875,24.468872070312
0.138,-17.772338867188,-9.7645263671875,26.590942382812
0.1385,-12.166870117188,-14.369018554688,25.589965820312
0.139,-8.2830810546875,-18.252807617188,25.549926757812
0.1395,-3.7987060546875,-20.935424804688,23.788208007812
0.14,1.9669189453125,-24.018432617188,21.265747070312
0.1405,6.3712158203125,-25.579956054688,18.543090820312
0.141,12.016723632812,-26.661010742188,14.138793945312
0.1415,15.940551757812,-26.140502929688,9.8946533203125
0.142,19.584106445312,-25.059448242188,5.2501220703125
0.1425,22.146606445312,-23.698120117188,1.4063720703125
0.143,24.909301757812,-21.415893554688,-3.5985107421875
0.1435,26.430786132812,-18.252807617188,-8.3231201171875
0.144,25.790161132812,-12.967651367188,-12.887573242188
0.1445,25.950317382812,-9.5643310546875,-16.611206054688
0.145,24.108520507812,-4.6395263671875,-19.614135742188
0.1455,22.426879882812,0.0450439453125,-22.577026367188
0.146,19.904418945312,4.8497314453125,-24.739135742188
0.1465,15.980590820312,10.575317382812,-26.500854492188
0.147,10.775512695312,14.859497070312,-25.459838867188
0.1475,6.7716064453125,18.503051757812,-25.139526367188
0.148,2.2071533203125,21.105590820312,-23.177612304688
0.1485,-3.3582763671875,24.188598632812,-20.855346679688
0.149,-7.8426513671875,25.509887695312,-17.812377929688
0.1495,-13.448120117188,26.070434570312,-12.887573242188
0.15,-16.811401367188,25.549926757812,-9.1639404296875
0.1505,-20.615112304688,24.308715820312,-4.3192138671875
0.151,-23.177612304688,22.426879882812,0.1251220703125
0.1515,-25.459838867188,20.184692382812,4.5694580078125
0.152,-26.620971679688,16.300903320312,9.7344970703125
0.1525,-25.660034179688,10.895629882812,14.058715820312
0.153,-25.619995117188,7.5723876953125,17.341918945312
0.1535,-23.618041992188,2.3272705078125,20.505004882812
0.154,-21.736206054688,-2.5975341796875,23.547973632812
0.1545,-18.933471679688,-7.1619873046875,25.229614257812
0.155,-14.449096679688,-12.927612304688,26.430786132812
0.1555,-9.4842529296875,-16.691284179688,25.189575195312
0.156,-5.2000732421875,-20.294799804688,24.508911132812
0.1565,0.0050048828125,-22.697143554688,21.826293945312
0.157,5.0499267578125,-25.499877929688,19.744262695312
0.1575,9.9747314453125,-26.340698242188,15.820434570312
0.158,15.259887695312,-26.420776367188,10.855590820312
0.1585,18.302856445312,-25.780151367188,7.2921142578125
0.159,22.226684570312,-24.338745117188,1.9669189453125
0.1595,24.468872070312,-22.016479492188,-2.5975341796875
0.16,26.230590820312,-19.654174804688,-6.6815185546875
0.1605,26.911254882812,-15.089721679688,-12.046752929688
0.161,25.670043945312,-9.8045654296875,-16.050659179688
0.1615,25.309692382812,-6.3211669921875,-19.213745117188
0.162,22.867309570312,-0.7557373046875,-22.176635742188
0.1625,20.985473632812,4.1690673828125,-25.099487304688
0.163,17.261840820312,8.8135986328125,-25.980346679688
0.1635,12.537231445312,14.419067382812,-26.781127929688
0.164,7.8126220703125,17.862426757812,-25.459838867188
0.1645,3.0079345703125,21.505981445312,-24.338745117188
0.165,-2.4373779296875,23.668090820312,-21.295776367188
0.1655,-6.7615966796875,26.030395507812,-19.413940429688
0.166,-12.166870117188,26.310668945312,-14.449096679688
0.1665,-16.651245117188,25.910278320312,-9.7645263671875
0.167,-19.694213867188,25.229614257812,-6.1610107421875
0.1675,-23.337768554688,23.227661132812,-0.5955810546875
0.168,-25.539916992188,20.785278320312,4.0889892578125
0.1685,-26.540893554688,17.822387695312,7.9727783203125
0.169,-26.941284179688,13.017700195312,13.217895507812
0.1695,-25.499877929688,7.8927001953125,16.821411132812
0.17,-24.899291992188,4.1290283203125,20.104614257812
0.1705,-22.096557617188,-1.4764404296875,22.787231445312
0.171,-20.374877929688,-6.0809326171875,25.589965820312
0.1715,-15.650268554688,-10.925659179688,25.630004882812
0.172,-11.165893554688,-15.850463867188,26.070434570312
0.1725,-6.8016357421875,-18.933471679688,24.749145507812
0.173,-1.3963623046875,-22.456909179688,22.987426757812
0.1735,3.8487548828125,-24.498901367188,19.904418945312
0.174,8.0928955078125,-26.420776367188,17.742309570312
0.1745,13.538208007812,-26.500854492188,12.497192382812
0.175,17.462036132812,-25.579956054688,7.8126220703125
0.1755,20.464965820312,-25.019409179688,4.4093017578125
0.176,23.668090820312,-22.617065429688,-1.1561279296875
0.1765,25.830200195312,-20.334838867188,-5.6405029296875
0.177,25.990356445312,-16.491088867188,-9.6844482421875
0.1775,26.390747070312,-12.046752929688,-14.609252929688
0.178,24.709106445312,-7.1219482421875,-17.692260742188
