wavelength,x,y,z
0.0,11.100830078125,12.181884765625,-22.932373046875
0.0005,5.895751953125,16.305908203125,-21.771240234375
0.001,0.970947265625,19.228759765625,-19.929443359375
0.0015,-3.713623046875,21.030517578125,-17.326904296875
0.002,-7.357177734375,22.231689453125,-15.164794921875
0.0025,-10.480224609375,22.071533203125,-12.161865234375
0.003,-13.923583984375,21.631103515625,-8.558349609375
0.0035,-17.326904296875,20.469970703125,-4.274169921875
0.004,-20.249755859375,18.307861328125,1.091064453125
0.0045,-21.971435546875,15.745361328125,5.215087890625
0.005,-22.451904296875,13.022705078125,8.378173828125
0.0055,-22.852294921875,9.979736328125,11.821533203125
0.006,-22.091552734375,5.175048828125,15.825439453125
0.0065,-20.890380859375,1.131103515625,18.868408203125
0.007,-18.688232421875,-3.153076171875,20.950439453125
0.0075,-16.606201171875,-7.076904296875,22.712158203125
0.008,-13.322998046875,-10.039794921875,22.672119140625
0.0085,-9.919677734375,-13.403076171875,22.552001953125
0.009,-4.874755859375,-17.086669921875,21.430908203125
0.0095,0.650634765625,-20.009521484375,19.148681640625
0.01,4.854736328125,-21.490966796875,16.666259765625
0.0105,8.137939453125,-22.251708984375,14.303955078125
0.011,11.461181640625,-22.291748046875,11.381103515625
0.0115,15.304931640625,-21.330810546875,6.736572265625
0.012,18.267822265625,-20.009521484375,2.612548828125
0.0125,20.910400390625,-17.647216796875,-2.352294921875
0.013,22.431884765625,-15.244873046875,-6.276123046875
0.0135,22.552001953125,-12.121826171875,-9.559326171875
0.014,22.792236328125,-8.958740234375,-12.882568359375
0.0145,21.911376953125,-4.114013671875,-16.926513671875
0.015,20.309814453125,0.370361328125,-19.889404296875
0.0155,17.907470703125,4.494384765625,-21.370849609375
0.016,15.665283203125,7.857666015625,-22.932373046875
0.0165,12.261962890625,11.180908203125,-22.772216796875
0.017,7.697509765625,15.024658203125,-22.131591796875
0.0175,3.213134765625,18.107666015625,-20.970458984375
0.018,-2.432373046875,20.790283203125,-18.407958984375
0.0185,-6.276123046875,22.111572265625,-15.885498046875
0.019,-9.439208984375,22.231689453125,-13.202880859375
0.0195,-12.642333984375,22.391845703125,-10.480224609375
0.02,-16.806396484375,21.030517578125,-5.155029296875
0.0205,-19.609130859375,19.188720703125,-0.590576171875
0.021,-21.651123046875,16.706298828125,3.813720703125
0.0215,-22.932373046875,14.223876953125,7.617431640625
0.022,-22.892333984375,10.740478515625,11.020751953125
0.0225,-22.732177734375,7.056884765625,14.704345703125
0.023,-21.731201171875,2.692626953125,18.147705078125
0.0235,-19.729248046875,-2.232177734375,20.990478515625
0.024,-17.126708984375,-6.115966796875,22.271728515625
0.0245,-14.604248046875,-9.239013671875,22.992431640625
0.025,-11.481201171875,-12.442138671875,23.152587890625
0.0255,-5.795654296875,-16.606201171875,21.831298828125
0.026,-1.271240234375,-19.248779296875,20.109619140625
0.0265,3.693603515625,-21.370849609375,17.587158203125
0.027,7.417236328125,-22.451904296875,15.224853515625
0.0275,10.660400390625,-22.091552734375,11.901611328125
0.028,13.783447265625,-21.971435546875,8.858642578125
0.0285,17.627197265625,-20.650146484375,3.853759765625
0.029,20.469970703125,-18.287841796875,-1.311279296875
0.0295,21.831298828125,-15.885498046875,-5.074951171875
0.03,22.712158203125,-13.322998046875,-8.518310546875
0.0305,22.592041015625,-9.999755859375,-11.681396484375
0.031,21.911376953125,-5.355224609375,-15.885498046875
0.0315,20.750244140625,-1.511474609375,-18.528076171875
0.032,18.628173828125,3.012939453125,-20.810302734375
0.0325,16.145751953125,6.696533203125,-22.091552734375
0.033,13.022705078125,9.779541015625,-22.091552734375
0.0335,10.059814453125,12.862548828125,-22.331787109375
0.034,4.414306640625,16.906494140625,-20.890380859375
0.0345,-0.630615234375,19.388916015625,-18.728271484375
0.035,-4.514404296875,20.870361328125,-16.486083984375
0.0355,-7.917724609375,21.791259765625,-14.323974609375
0.036,-11.040771484375,21.470947265625,-11.040771484375
0.0365,-14.484130859375,20.790283203125,-7.076904296875
0.037,-17.647216796875,19.549072265625,-2.872802734375
0.0375,-20.169677734375,17.066650390625,2.092041015625
0.038,-21.290771484375,14.704345703125,5.575439453125
0.0385,-21.771240234375,11.941650390625,8.858642578125
0.039,-21.931396484375,9.018798828125,11.901611328125
0.0395,-21.010498046875,4.134033203125,15.985595703125
0.04,-19.489013671875,0.050048828125,18.548095703125
0.0405,-17.447021484375,-3.753662109375,20.349853515625
0.041,-15.405029296875,-7.116943359375,21.671142578125
0.0415,-12.041748046875,-10.119873046875,21.430908203125
0.042,-8.478271484375,-13.443115234375,21.270751953125
0.0425,-3.673583984375,-16.806396484375,19.989501953125
0.043,1.611572265625,-19.248779296875,17.427001953125
0.0435,4.974853515625,-20.289794921875,15.425048828125
0.044,8.097900390625,-20.970458984375,13.142822265625
0.0445,11.060791015625,-20.930419921875,10.420166015625
0.045,14.944580078125,-19.889404296875,5.615478515625
0.0455,17.707275390625,-18.447998046875,1.531494140625
0.046,19.789306640625,-16.285888671875,-2.712646484375
0.0465,20.830322265625,-13.963623046875,-5.995849609375
0.047,20.950439453125,-10.960693359375,-9.118896484375
0.0475,21.030517578125,-7.797607421875,-12.402099609375
0.048,20.229736328125,-3.553466796875,-15.965576171875
0.0485,18.387939453125,0.930908203125,-18.568115234375
0.049,16.305908203125,4.294189453125,-19.889404296875
0.0495,14.223876953125,7.457275390625,-21.010498046875
0.05,11.100830078125,10.420166015625,-20.970458984375
0.0505,6.376220703125,14.263916015625,-20.209716796875
0.051,2.172119140625,17.146728515625,-19.128662109375
0.0515,-2.632568359375,19.268798828125,-16.646240234375
0.052,-5.835693359375,20.189697265625,-14.604248046875
0.0525,-8.958740234375,20.429931640625,-11.921630859375
0.053,-11.881591796875,20.429931640625,-9.279052734375
0.0535,-15.685302734375,19.228759765625,-4.434326171875
0.054,-18.367919921875,17.226806640625,0.250244140625
0.0545,-19.929443359375,15.224853515625,3.813720703125
0.055,-20.890380859375,12.862548828125,7.056884765625
0.0555,-20.930419921875,9.779541015625,10.219970703125
0.056,-20.530029296875,5.775634765625,13.863525390625
0.0565,-19.729248046875,1.971923828125,16.946533203125
0.057,-17.767333984375,-2.432373046875,19.308837890625
0.0575,-15.525146484375,-5.715576171875,20.389892578125
0.058,-13.122802734375,-8.718505859375,21.070556640625
0.0585,-10.079833984375,-11.721435546875,21.110595703125
0.059,-4.754638671875,-15.525146484375,19.749267578125
0.0595,-0.150146484375,-18.047607421875,17.947509765625
0.06,3.853759765625,-19.769287109375,15.905517578125
0.0605,7.016845703125,-20.489990234375,13.783447265625
0.061,10.099853515625,-20.489990234375,10.740478515625
0.0615,13.423095703125,-20.089599609375,7.297119140625
0.062,16.666259765625,-18.928466796875,2.932861328125
0.0625,19.148681640625,-16.486083984375,-1.831787109375
0.063,20.189697265625,-14.404052734375,-4.954833984375
0.0635,20.910400390625,-11.881591796875,-8.157958984375
0.064,20.870361328125,-8.838623046875,-11.240966796875
0.0645,20.069580078125,-4.394287109375,-14.884521484375
0.065,18.828369140625,-0.510498046875,-17.607177734375
0.0655,16.946533203125,3.453369140625,-19.569091796875
0.066,14.624267578125,6.536376953125,-20.489990234375
0.0665,11.661376953125,9.619384765625,-20.690185546875
0.067,8.218017578125,12.862548828125,-20.570068359375
0.0675,3.293212890625,16.305908203125,-19.288818359375
0.068,-1.631591796875,18.548095703125,-16.846435546875
0.0685,-4.834716796875,19.749267578125,-15.084716796875
0.069,-7.877685546875,20.389892578125,-12.882568359375
0.0695,-10.880615234375,20.189697265625,-9.959716796875
0.07,-14.444091796875,19.268798828125,-5.755615234375
0.0705,-17.326904296875,17.907470703125,-1.511474609375
0.071,-19.448974609375,15.625244140625,2.892822265625
0.0715,-20.209716796875,13.383056640625,5.855712890625
0.072,-20.690185546875,10.620361328125,9.098876953125
0.0725,-20.570068359375,7.377197265625,12.342041015625
0.073,-19.809326171875,3.133056640625,15.785400390625
0.0735,-17.967529296875,-1.111083984375,18.227783203125
0.074,-16.085693359375,-4.514404296875,19.789306640625
0.0745,-13.923583984375,-7.517333984375,20.670166015625
0.075,-10.760498046875,-10.480224609375,20.510009765625
0.0755,-6.596435546875,-13.923583984375,19.989501953125
0.076,-1.951904296875,-16.966552734375,18.548095703125
0.0765,2.732666015625,-18.928466796875,16.105712890625
0.077,5.615478515625,-19.809326171875,14.223876953125
0.0775,8.698486328125,-20.289794921875,11.861572265625
0.078,11.821533203125,-20.049560546875,8.658447265625
0.0785,15.264892578125,-18.928466796875,4.414306640625
0.079,17.907470703125,-17.126708984375,0.050048828125
0.0795,19.709228515625,-15.044677734375,-3.833740234375
0.08,20.309814453125,-12.682373046875,-6.796630859375
0.0805,20.510009765625,-9.759521484375,-9.959716796875
0.081,20.149658203125,-5.955810546875,-13.443115234375
0.0815,19.308837890625,-2.031982421875,-16.606201171875
0.082,17.266845703125,2.212158203125,-18.728271484375
0.0825,15.264892578125,5.295166015625,-19.849365234375
0.083,12.942626953125,8.378173828125,-20.650146484375
0.0835,9.339111328125,11.541259765625,-20.449951171875
0.084,4.854736328125,14.944580078125,-19.408935546875
0.0845,0.290283203125,17.707275390625,-17.727294921875
0.085,-3.993896484375,19.509033203125,-15.645263671875
0.0855,-6.756591796875,19.909423828125,-13.443115234375
0.086,-9.839599609375,20.149658203125,-10.920654296875
0.0865,-13.282958984375,19.709228515625,-7.116943359375
0.087,-16.406005859375,18.387939453125,-2.872802734375
0.0875,-18.688232421875,16.265869140625,1.571533203125
0.088,-20.089599609375,14.143798828125,4.974853515625
0.0885,-20.610107421875,11.621337890625,8.017822265625
0.089,-20.570068359375,8.298095703125,11.381103515625
0.0895,-19.889404296875,4.334228515625,14.664306640625
0.09,-18.648193359375,0.330322265625,17.547119140625
0.0905,-16.566162109375,-3.713623046875,19.468994140625
0.091,-14.404052734375,-6.516357421875,20.109619140625
0.0915,-11.921630859375,-9.479248046875,20.630126953125
0.092,-7.877685546875,-12.922607421875,20.189697265625
0.0925,-3.273193359375,-15.965576171875,18.828369140625
0.093,1.291259765625,-18.167724609375,16.666259765625
0.0935,4.814697265625,-19.609130859375,14.784423828125
0.094,7.617431640625,-19.889404296875,12.462158203125
0.0945,10.540283203125,-19.809326171875,9.739501953125
0.095,13.943603515625,-19.128662109375,5.775634765625
0.0955,16.866455078125,-17.567138671875,1.531494140625
0.096,18.788330078125,-15.405029296875,-2.632568359375
0.0965,19.669189453125,-13.282958984375,-5.555419921875
0.097,20.149658203125,-10.720458984375,-8.638427734375
0.0975,19.949462890625,-7.156982421875,-12.041748046875
0.098,19.148681640625,-3.433349609375,-15.004638671875
0.0985,17.587158203125,0.610595703125,-17.406982421875
0.099,15.705322265625,4.134033203125,-19.208740234375
0.0995,13.423095703125,6.896728515625,-19.609130859375
0.1,10.820556640625,9.699462890625,-19.929443359375
0.1005,6.536376953125,13.343017578125,-19.408935546875
0.101,1.971923828125,16.225830078125,-17.967529296875
0.1015,-2.272216796875,18.067626953125,-15.805419921875
0.102,-5.195068359375,19.108642578125,-14.123779296875
0.1025,-8.077880859375,19.509033203125,-11.841552734375
0.103,-11.240966796875,19.228759765625,-8.638427734375
0.1035,-14.404052734375,18.427978515625,-4.834716796875
0.104,-17.086669921875,16.626220703125,-0.470458984375
0.1045,-18.928466796875,14.584228515625,3.373291015625
0.105,-19.408935546875,12.342041015625,6.135986328125
0.1055,-19.889404296875,9.819580078125,9.218994140625
0.106,-19.529052734375,5.815673828125,12.822509765625
0.1065,-18.728271484375,2.132080078125,15.745361328125
0.107,-16.846435546875,-1.751708984375,17.747314453125
0.1075,-15.164794921875,-4.914794921875,19.348876953125
0.108,-12.802490234375,-7.717529296875,19.789306640625
0.1085,-9.599365234375,-10.760498046875,19.709228515625
0.109,-5.435302734375,-14.123779296875,18.908447265625
0.1095,-0.630615234375,-16.926513671875,17.186767578125
0.11,3.293212890625,-18.568115234375,15.184814453125
0.1105,5.935791015625,-19.088623046875,13.302978515625
0.111,8.898681640625,-19.569091796875,11.060791015625
0.1115,12.462158203125,-18.928466796875,7.056884765625
0.112,15.264892578125,-17.927490234375,3.333251953125
0.1125,17.587158203125,-16.005615234375,-0.790771484375
0.113,19.188720703125,-14.083740234375,-4.314208984375
0.1135,19.509033203125,-11.561279296875,-7.116943359375
0.114,19.829345703125,-8.718505859375,-10.280029296875
0.1145,19.228759765625,-4.834716796875,-13.723388671875
0.115,18.107666015625,-0.830810546875,-16.606201171875
0.1155,16.105712890625,2.892822265625,-18.287841796875
0.116,14.263916015625,5.735595703125,-19.368896484375
0.1165,11.861572265625,8.698486328125,-19.969482421875
0.117,7.697509765625,12.302001953125,-19.529052734375
0.1175,3.773681640625,15.144775390625,-18.568115234375
0.118,-0.990966796875,17.587158203125,-16.606201171875
0.1185,-4.554443359375,19.188720703125,-14.764404296875
0.119,-7.237060546875,19.348876953125,-12.522216796875
0.1195,-10.119873046875,19.709228515625,-10.239990234375
0.12,-13.963623046875,18.908447265625,-5.755615234375
0.1205,-16.766357421875,17.346923828125,-1.511474609375
0.121,-18.648193359375,15.344970703125,2.412353515625
0.1215,-19.929443359375,13.302978515625,5.695556640625
0.122,-20.209716796875,10.580322265625,8.698486328125
0.1225,-20.169677734375,6.896728515625,12.382080078125
0.123,-19.448974609375,3.213134765625,15.385009765625
0.1235,-17.927490234375,-1.031005859375,18.067626953125
0.124,-15.845458984375,-4.674560546875,19.709228515625
0.1245,-13.523193359375,-7.397216796875,20.149658203125
0.125,-11.080810546875,-10.320068359375,20.670166015625
0.1255,-6.035888671875,-14.283935546875,19.789306640625
0.126,-1.631591796875,-17.006591796875,18.187744140625
0.1265,2.572509765625,-18.728271484375,16.105712890625
0.127,5.935791015625,-20.009521484375,14.223876953125
0.1275,8.818603515625,-19.969482421875,11.501220703125
0.128,11.901611328125,-19.809326171875,8.458251953125
0.1285,15.344970703125,-18.968505859375,4.334228515625
0.129,17.987548828125,-16.926513671875,-0.310302734375
0.1295,19.549072265625,-14.804443359375,-3.913818359375
0.13,20.229736328125,-12.522216796875,-6.916748046875
0.1305,20.550048828125,-9.879638671875,-9.879638671875
0.131,19.989501953125,-5.395263671875,-13.843505859375
0.1315,19.028564453125,-1.831787109375,-16.446044921875
0.132,17.226806640625,2.092041015625,-18.568115234375
0.1325,15.224853515625,5.575439453125,-20.129638671875
0.133,12.382080078125,8.338134765625,-20.129638671875
0.1335,9.579345703125,11.301025390625,-20.369873046875
0.134,4.774658203125,15.024658203125,-19.448974609375
0.1345,-0.150146484375,17.667236328125,-17.406982421875
0.135,-3.713623046875,19.068603515625,-15.445068359375
0.1355,-6.756591796875,19.989501953125,-13.523193359375
0.136,-9.639404296875,20.029541015625,-10.920654296875
0.1365,-13.202880859375,19.308837890625,-6.796630859375
0.137,-16.085693359375,18.307861328125,-3.113037109375
0.1375,-18.447998046875,16.185791015625,1.371337890625
0.138,-19.889404296875,14.103759765625,4.854736328125
0.1385,-20.209716796875,11.461181640625,7.817626953125
0.139,-20.530029296875,8.778564453125,10.860595703125
0.1395,-19.889404296875,4.254150390625,14.744384765625
0.14,-18.488037109375,0.250244140625,17.427001953125
0.1405,-16.526123046875,-3.353271484375,19.028564453125
0.141,-14.764404296875,-6.516357421875,20.469970703125
0.1415,-11.721435546875,-9.439208984375,20.429931640625
0.142,-7.837646484375,-12.882568359375,20.109619140625
0.1425,-3.593505859375,-16.005615234375,19.108642578125
0.143,1.451416015625,-18.407958984375,16.786376953125
0.1435,4.814697265625,-19.569091796875,14.784423828125
0.144,7.697509765625,-20.009521484375,12.542236328125
0.1445,10.580322265625,-20.209716796875,10.139892578125
0.145,14.464111328125,-19.128662109375,5.295166015625
0.1455,17.186767578125,-17.647216796875,1.251220703125
0.146,19.108642578125,-15.645263671875,-2.672607421875
0.1465,20.269775390625,-13.443115234375,-5.955810546875
0.147,20.349853515625,-10.480224609375,-9.038818359375
0.1475,20.349853515625,-7.197021484375,-12.362060546875
0.148,19.709228515625,-3.233154296875,-15.685302734375
0.1485,17.907470703125,1.131103515625,-18.247802734375
0.149,15.785400390625,4.494384765625,-19.529052734375
0.1495,13.623291015625,7.457275390625,-20.489990234375
0.15,10.820556640625,10.380126953125,-20.650146484375
0.1505,5.775634765625,14.384033203125,-19.689208984375
0.151,1.611572265625,17.026611328125,-18.407958984375
0.1515,-2.832763671875,19.068603515625,-16.245849609375
0.152,-6.115966796875,20.109619140625,-14.243896484375
0.1525,-9.078857421875,20.029541015625,-11.441162109375
0.153,-12.081787109375,20.029541015625,-8.718505859375
0.1535,-15.685302734375,18.948486328125,-4.154052734375
0.154,-18.327880859375,16.786376953125,0.610595703125
0.1545,-19.769287109375,14.744384765625,4.013916015625
0.155,-20.690185546875,12.502197265625,7.257080078125
0.1555,-20.690185546875,9.499267578125,10.300048828125
0.156,-20.209716796875,5.255126953125,14.103759765625
0.1565,-19.328857421875,1.571533203125,16.906494140625
0.157,-17.447021484375,-2.672607421875,19.228759765625
0.1575,-15.244873046875,-5.955810546875,20.349853515625
0.158,-12.602294921875,-8.918701171875,20.670166015625
0.1585,-9.719482421875,-11.841552734375,20.870361328125
0.159,-4.394287109375,-15.605224609375,19.509033203125
0.1595,0.370361328125,-18.047607421875,17.467041015625
0.16,3.973876953125,-19.529052734375,15.545166015625
0.1605,7.136962890625,-20.369873046875,13.463134765625
0.161,10.179931640625,-20.129638671875,10.420166015625
0.1615,13.463134765625,-19.609130859375,6.776611328125
0.162,16.586181640625,-18.528076171875,2.692626953125
0.1625,18.988525390625,-16.165771484375,-1.991943359375
0.163,19.989501953125,-14.043701171875,-5.114990234375
0.1635,20.590087890625,-11.481201171875,-8.278076171875
0.164,20.630126953125,-8.638427734375,-11.240966796875
0.1645,19.869384765625,-4.114013671875,-15.004638671875
0.165,18.427978515625,-0.230224609375,-17.567138671875
0.1655,16.586181640625,3.493408203125,-19.408935546875
0.166,14.464111328125,6.656494140625,-20.489990234375
0.1665,11.301025390625,9.739501953125,-20.409912109375
0.167,7.817626953125,13.022705078125,-20.329833984375
0.1675,3.093017578125,16.345947265625,-19.128662109375
0.168,-1.951904296875,18.628173828125,-16.686279296875
0.1685,-4.994873046875,19.709228515625,-14.844482421875
0.169,-8.037841796875,20.349853515625,-12.682373046875
0.1695,-11.040771484375,20.189697265625,-9.759521484375
0.17,-14.724365234375,19.188720703125,-5.275146484375
0.1705,-17.527099609375,17.747314453125,-1.151123046875
0.171,-19.609130859375,15.505126953125,3.133056640625
0.1715,-20.449951171875,13.302978515625,6.216064453125
0.172,-20.770263671875,10.300048828125,9.499267578125
0.1725,-20.690185546875,7.056884765625,12.782470703125
0.173,-19.929443359375,2.772705078125,16.265869140625
0.1735,-17.967529296875,-1.631591796875,18.708251953125
0.174,-16.045654296875,-4.954833984375,20.149658203125
0.1745,-13.963623046875,-7.957763671875,21.110595703125
0.175,-10.520263671875,-11.040771484375,20.870361328125
0.1755,-6.075927734375,-14.644287109375,20.109619140625
0.176,-1.471435546875,-17.607177734375,18.708251953125
0.1765,3.333251953125,-19.609130859375,16.265869140625
0.177,6.256103515625,-20.329833984375,14.183837890625
0.1775,9.419189453125,-20.650146484375,11.661376953125
0.178,12.622314453125,-20.369873046875,8.378173828125
0.1785,16.105712890625,-19.168701171875,3.853759765625
0.179,18.708251953125,-17.166748046875,-0.750732421875
0.1795,20.429931640625,-15.084716796875,-4.514404296875
0.18,21.070556640625,-12.642333984375,-7.557373046875
0.1805,21.110595703125,-9.399169921875,-10.920654296875
0.181,20.630126953125,-5.475341796875,-14.444091796875
