wavelength,x,y,z
0.0,20.469970703125,-6.916748046875,-12.762451171875
0.0005,19.709228515625,-3.353271484375,-15.565185546875
0.001,17.947509765625,0.530517578125,-17.727294921875
0.0015,15.985595703125,4.174072265625,-19.368896484375
0.002,13.142822265625,7.257080078125,-19.729248046875
0.0025,10.219970703125,10.500244140625,-20.089599609375
0.003,5.735595703125,14.223876953125,-19.408935546875
0.0035,1.291259765625,16.946533203125,-18.007568359375
0.004,-2.832763671875,18.548095703125,-15.845458984375
0.0045,-5.915771484375,19.549072265625,-13.963623046875
0.005,-9.198974609375,19.909423828125,-11.200927734375
0.0055,-12.522216796875,19.709228515625,-7.757568359375
0.006,-15.485107421875,18.948486328125,-4.234130859375
0.0065,-17.887451171875,17.146728515625,-0.150146484375
0.007,-19.448974609375,15.064697265625,3.533447265625
0.0075,-19.889404296875,12.502197265625,6.496337890625
0.008,-20.369873046875,9.619384765625,9.859619140625
0.0085,-20.009521484375,5.415283203125,13.623291015625
0.009,-19.088623046875,1.931884765625,16.305908203125
0.0095,-17.126708984375,-1.831787109375,17.987548828125
0.01,-15.244873046875,-5.155029296875,19.509033203125
0.0105,-12.281982421875,-8.318115234375,19.869384765625
0.011,-8.838623046875,-11.681396484375,19.909423828125
0.0115,-4.634521484375,-14.924560546875,19.108642578125
0.012,0.050048828125,-17.447021484375,17.226806640625
0.0125,3.853759765625,-18.928466796875,15.104736328125
0.013,6.776611328125,-19.529052734375,12.942626953125
0.0135,10.059814453125,-20.009521484375,10.380126953125
0.014,13.743408203125,-19.489013671875,6.256103515625
0.0145,16.345947265625,-18.447998046875,2.772705078125
0.015,18.427978515625,-16.526123046875,-1.271240234375
0.0155,19.869384765625,-14.444091796875,-4.674560546875
0.016,20.109619140625,-11.521240234375,-7.757568359375
0.0165,20.469970703125,-8.598388671875,-11.200927734375
0.017,19.909423828125,-4.634521484375,-14.604248046875
0.0175,18.668212890625,-0.710693359375,-17.206787109375
0.018,16.466064453125,2.972900390625,-18.648193359375
0.0185,14.263916015625,6.135986328125,-19.729248046875
0.019,11.341064453125,9.459228515625,-20.209716796875
0.0195,6.856689453125,13.423095703125,-19.809326171875
0.02,2.972900390625,16.065673828125,-18.808349609375
0.0205,-1.671630859375,18.307861328125,-16.606201171875
0.021,-5.275146484375,19.669189453125,-14.644287109375
0.0215,-8.318115234375,19.829345703125,-11.961669921875
0.022,-11.481201171875,20.189697265625,-9.359130859375
0.0225,-15.204833984375,19.388916015625,-4.994873046875
0.023,-17.607177734375,17.827392578125,-1.071044921875
0.0235,-19.208740234375,15.785400390625,2.572509765625
0.024,-20.329833984375,13.503173828125,5.895751953125
0.0245,-20.489990234375,10.300048828125,9.218994140625
0.025,-20.489990234375,6.536376953125,12.982666015625
0.0255,-19.769287109375,3.052978515625,15.785400390625
0.026,-18.127685546875,-1.031005859375,18.227783203125
0.0265,-15.885498046875,-4.554443359375,19.549072265625
0.027,-13.322998046875,-7.557373046875,20.069580078125
0.0275,-10.520263671875,-10.840576171875,20.630126953125
0.028,-5.395263671875,-14.804443359375,19.709228515625
0.0285,-1.271240234375,-17.206787109375,18.107666015625
0.029,2.812744140625,-18.888427734375,16.025634765625
0.0295,6.256103515625,-20.009521484375,14.063720703125
0.03,9.499267578125,-20.009521484375,10.860595703125
0.0305,12.742431640625,-20.009521484375,7.817626953125
0.031,15.985595703125,-19.248779296875,3.933837890625
0.0315,18.347900390625,-17.206787109375,-0.390380859375
0.032,19.829345703125,-15.204833984375,-3.833740234375
0.0325,20.389892578125,-12.682373046875,-6.996826171875
0.033,20.670166015625,-9.799560546875,-10.119873046875
0.0335,20.269775390625,-5.395263671875,-14.123779296875
0.034,19.308837890625,-2.031982421875,-16.486083984375
0.0345,17.427001953125,1.851806640625,-18.447998046875
0.035,15.224853515625,5.415283203125,-19.889404296875
0.0355,11.981689453125,8.618408203125,-19.969482421875
0.036,8.978759765625,11.901611328125,-20.409912109375
0.0365,4.093994140625,15.665283203125,-19.448974609375
0.037,-0.630615234375,18.027587890625,-17.326904296875
0.0375,-3.993896484375,19.348876953125,-15.445068359375
0.038,-7.477294921875,20.309814453125,-13.242919921875
0.0385,-10.760498046875,20.349853515625,-10.119873046875
0.039,-14.404052734375,19.829345703125,-6.115966796875
0.0395,-17.086669921875,18.828369140625,-2.592529296875
0.04,-19.288818359375,16.626220703125,1.771728515625
0.0405,-20.329833984375,14.384033203125,4.974853515625
0.041,-20.690185546875,11.341064453125,8.378173828125
0.0415,-21.010498046875,8.458251953125,11.661376953125
0.042,-20.449951171875,3.853759765625,15.625244140625
0.0425,-18.928466796875,0.050048828125,17.947509765625
0.043,-16.886474609375,-3.553466796875,19.509033203125
0.0435,-14.724365234375,-7.036865234375,20.830322265625
0.044,-11.040771484375,-10.400146484375,20.710205078125
0.0445,-7.076904296875,-14.043701171875,20.510009765625
0.045,-2.632568359375,-17.086669921875,19.388916015625
0.0455,2.292236328125,-19.248779296875,16.906494140625
0.046,5.615478515625,-20.209716796875,14.784423828125
0.0465,9.018798828125,-20.850341796875,12.101806640625
0.047,12.302001953125,-20.850341796875,9.098876953125
0.0475,16.065673828125,-19.889404296875,4.494384765625
0.048,18.468017578125,-18.327880859375,0.570556640625
0.0485,20.229736328125,-16.165771484375,-3.353271484375
0.049,21.070556640625,-13.723388671875,-6.516357421875
0.0495,21.150634765625,-10.239990234375,-10.119873046875
0.05,21.150634765625,-6.876708984375,-13.483154296875
0.0505,20.429931640625,-2.872802734375,-16.686279296875
0.051,18.387939453125,1.491455078125,-18.968505859375
0.0515,15.985595703125,4.854736328125,-20.049560546875
0.052,13.423095703125,8.298095703125,-21.090576171875
0.0525,9.899658203125,11.701416015625,-21.010498046875
0.053,4.854736328125,15.625244140625,-20.089599609375
0.0535,0.770751953125,18.107666015625,-18.648193359375
0.054,-3.793701171875,19.909423828125,-16.285888671875
0.0545,-7.036865234375,20.670166015625,-14.123779296875
0.055,-10.600341796875,20.790283203125,-10.760498046875
0.0555,-13.723388671875,20.790283203125,-7.797607421875
0.056,-17.046630859375,19.549072265625,-3.353271484375
0.0565,-19.328857421875,17.346923828125,1.131103515625
0.057,-20.489990234375,15.104736328125,4.294189453125
0.0575,-21.290771484375,12.542236328125,7.777587890625
0.058,-21.210693359375,9.058837890625,11.260986328125
0.0585,-20.770263671875,4.934814453125,14.904541015625
0.059,-19.809326171875,1.331298828125,17.547119140625
0.0595,-17.687255859375,-2.872802734375,19.589111328125
0.06,-15.204833984375,-6.115966796875,20.429931640625
0.0605,-12.201904296875,-9.479248046875,20.950439453125
0.061,-8.838623046875,-12.802490234375,20.990478515625
0.0615,-3.633544921875,-16.446044921875,19.629150390625
0.062,0.890869140625,-18.568115234375,17.547119140625
0.0625,4.574462890625,-20.009521484375,15.505126953125
0.063,7.857666015625,-20.650146484375,13.102783203125
0.0635,11.341064453125,-20.530029296875,9.659423828125
0.064,14.624267578125,-20.169677734375,6.135986328125
0.0645,17.507080078125,-18.968505859375,2.172119140625
0.065,19.669189453125,-16.566162109375,-2.272216796875
0.0655,20.469970703125,-14.404052734375,-5.195068359375
0.066,21.070556640625,-11.521240234375,-8.678466796875
0.0665,21.030517578125,-8.318115234375,-11.881591796875
0.067,20.349853515625,-4.033935546875,-15.525146484375
0.0675,18.908447265625,-0.350341796875,-17.807373046875
0.068,16.946533203125,3.453369140625,-19.529052734375
0.0685,14.343994140625,6.776611328125,-20.409912109375
0.069,10.900634765625,10.219970703125,-20.530029296875
0.0695,7.136962890625,13.783447265625,-20.489990234375
0.07,2.412353515625,16.986572265625,-19.168701171875
0.0705,-2.352294921875,18.988525390625,-16.686279296875
0.071,-5.475341796875,19.989501953125,-14.764404296875
0.0715,-8.838623046875,20.630126953125,-12.241943359375
0.072,-12.241943359375,20.429931640625,-8.878662109375
0.0725,-15.645263671875,19.669189453125,-4.834716796875
0.073,-18.087646484375,18.147705078125,-0.990966796875
0.0735,-20.009521484375,15.945556640625,3.213134765625
0.074,-20.610107421875,13.503173828125,6.296142578125
0.0745,-21.050537109375,10.219970703125,9.899658203125
0.075,-21.010498046875,6.696533203125,13.343017578125
0.0755,-20.209716796875,2.652587890625,16.626220703125
0.076,-18.247802734375,-1.431396484375,18.708251953125
0.0765,-16.205810546875,-4.834716796875,20.149658203125
0.077,-13.603271484375,-8.197998046875,20.990478515625
0.0775,-9.879638671875,-11.681396484375,20.830322265625
0.078,-5.595458984375,-15.204833984375,20.229736328125
0.0785,-0.950927734375,-18.047607421875,18.668212890625
0.079,3.693603515625,-19.849365234375,16.145751953125
0.0795,6.656494140625,-20.449951171875,13.943603515625
0.08,10.219970703125,-20.970458984375,11.100830078125
0.0805,13.703369140625,-20.650146484375,7.497314453125
0.081,16.906494140625,-19.649169921875,3.373291015625
0.0815,19.228759765625,-17.647216796875,-0.910888671875
0.082,20.870361328125,-15.405029296875,-4.634521484375
0.0825,21.310791015625,-12.682373046875,-7.837646484375
0.083,21.470947265625,-9.198974609375,-11.521240234375
0.0835,21.070556640625,-5.275146484375,-15.004638671875
0.084,20.109619140625,-1.391357421875,-17.887451171875
0.0845,17.707275390625,2.892822265625,-19.809326171875
0.085,15.344970703125,6.216064453125,-20.770263671875
0.0855,12.342041015625,9.739501953125,-21.490966796875
0.086,8.177978515625,13.463134765625,-21.130615234375
0.0865,3.613525390625,16.746337890625,-20.009521484375
0.087,-1.151123046875,19.228759765625,-18.007568359375
0.0875,-5.395263671875,20.790283203125,-15.685302734375
0.088,-8.478271484375,21.070556640625,-13.082763671875
0.0885,-12.001708984375,21.350830078125,-10.039794921875
0.089,-15.645263671875,20.670166015625,-5.915771484375
0.0895,-18.447998046875,19.268798828125,-1.751708984375
0.09,-20.449951171875,16.946533203125,2.612548828125
0.0905,-21.651123046875,14.584228515625,6.095947265625
0.091,-21.971435546875,11.381103515625,9.619384765625
0.0915,-21.971435546875,7.537353515625,13.423095703125
0.092,-21.130615234375,3.493408203125,16.666259765625
0.0925,-19.689208984375,-0.670654296875,19.308837890625
0.093,-17.206787109375,-4.754638671875,20.990478515625
0.0935,-14.444091796875,-7.837646484375,21.470947265625
0.094,-11.401123046875,-11.321044921875,21.951416015625
0.0945,-6.556396484375,-15.244873046875,21.270751953125
0.095,-1.951904296875,-18.087646484375,19.709228515625
0.0955,2.692626953125,-20.009521484375,17.226806640625
0.096,6.456298828125,-21.330810546875,15.064697265625
0.0965,9.739501953125,-21.410888671875,12.021728515625
0.097,13.182861328125,-21.410888671875,8.738525390625
0.0975,16.666259765625,-20.530029296875,4.534423828125
0.098,19.348876953125,-18.728271484375,0.170166015625
0.0985,21.070556640625,-16.325927734375,-3.913818359375
0.099,21.791259765625,-13.803466796875,-7.116943359375
0.0995,22.071533203125,-10.600341796875,-10.640380859375
0.1,21.791259765625,-6.396240234375,-14.604248046875
0.1005,20.790283203125,-2.592529296875,-17.326904296875
0.101,18.868408203125,1.571533203125,-19.529052734375
0.1015,16.506103515625,5.455322265625,-21.130615234375
0.102,13.302978515625,8.698486328125,-21.250732421875
0.1025,10.099853515625,12.101806640625,-21.651123046875
0.103,5.094970703125,16.025634765625,-20.770263671875
0.1035,0.370361328125,18.708251953125,-18.928466796875
0.104,-3.913818359375,20.229736328125,-16.486083984375
0.1045,-7.317138671875,21.230712890625,-14.283935546875
0.105,-10.760498046875,21.310791015625,-11.160888671875
0.1055,-14.283935546875,20.950439453125,-7.397216796875
0.106,-17.326904296875,20.029541015625,-3.553466796875
0.1065,-19.809326171875,17.907470703125,0.970947265625
0.107,-21.290771484375,15.545166015625,4.814697265625
0.1075,-21.611083984375,12.622314453125,8.057861328125
0.108,-22.011474609375,9.459228515625,11.581298828125
0.1085,-21.450927734375,4.814697265625,15.625244140625
0.109,-20.249755859375,1.051025390625,18.267822265625
0.1095,-18.007568359375,-2.952880859375,19.989501953125
0.11,-15.845458984375,-6.556396484375,21.470947265625
0.1105,-12.362060546875,-9.919677734375,21.470947265625
0.111,-8.678466796875,-13.443115234375,21.470947265625
0.1115,-4.033935546875,-16.806396484375,20.389892578125
0.112,1.131103515625,-19.368896484375,18.107666015625
0.1125,5.014892578125,-20.730224609375,15.745361328125
0.113,8.258056640625,-21.210693359375,13.262939453125
0.1135,11.661376953125,-21.490966796875,10.340087890625
0.114,15.585205078125,-20.650146484375,5.735595703125
0.1145,18.187744140625,-19.408935546875,1.971923828125
0.115,20.269775390625,-17.246826171875,-2.272216796875
0.1155,21.591064453125,-14.884521484375,-5.915771484375
0.116,21.631103515625,-11.521240234375,-9.239013671875
0.1165,21.831298828125,-8.318115234375,-12.722412109375
0.117,21.110595703125,-3.993896484375,-16.285888671875
0.1175,19.509033203125,0.170166015625,-18.928466796875
0.118,17.106689453125,3.973876953125,-20.209716796875
0.1185,14.664306640625,7.377197265625,-21.290771484375
0.119,11.301025390625,10.820556640625,-21.490966796875
0.1195,6.496337890625,14.784423828125,-20.810302734375
0.12,2.412353515625,17.467041015625,-19.689208984375
0.1205,-2.512451171875,19.709228515625,-17.246826171875
0.121,-6.196044921875,20.870361328125,-15.044677734375
0.1215,-9.479248046875,20.990478515625,-12.001708984375
0.122,-12.682373046875,21.270751953125,-9.279052734375
0.1225,-16.526123046875,20.269775390625,-4.554443359375
0.123,-18.968505859375,18.468017578125,-0.390380859375
0.1235,-20.489990234375,16.265869140625,3.333251953125
0.124,-21.531005859375,13.783447265625,6.816650390625
0.1245,-21.531005859375,10.300048828125,10.219970703125
0.125,-21.450927734375,6.416259765625,14.063720703125
0.1255,-20.650146484375,2.692626953125,16.946533203125
0.126,-18.728271484375,-1.591552734375,19.388916015625
0.1265,-16.285888671875,-5.235107421875,20.590087890625
0.127,-13.483154296875,-8.398193359375,21.070556640625
0.1275,-10.520263671875,-11.681396484375,21.470947265625
0.128,-5.114990234375,-15.845458984375,20.349853515625
0.1285,-0.790771484375,-18.207763671875,18.628173828125
0.129,3.413330078125,-19.849365234375,16.385986328125
0.1295,6.976806640625,-20.890380859375,14.143798828125
0.13,10.380126953125,-20.730224609375,10.740478515625
0.1305,13.543212890625,-20.650146484375,7.697509765625
0.131,16.906494140625,-19.729248046875,3.573486328125
0.1315,19.268798828125,-17.567138671875,-0.990966796875
0.132,20.469970703125,-15.405029296875,-4.314208984375
0.1325,21.190673828125,-12.562255859375,-7.637451171875
0.133,21.310791015625,-9.639404296875,-10.800537109375
0.1335,20.790283203125,-5.155029296875,-14.844482421875
0.134,19.709228515625,-1.751708984375,-17.206787109375
0.1345,17.787353515625,2.252197265625,-19.208740234375
0.135,15.385009765625,5.895751953125,-20.489990234375
0.1355,11.981689453125,9.218994140625,-20.489990234375
0.136,8.978759765625,12.462158203125,-20.890380859375
0.1365,3.853759765625,16.185791015625,-19.809326171875
0.137,-0.950927734375,18.508056640625,-17.567138671875
0.1375,-4.394287109375,19.789306640625,-15.565185546875
0.138,-7.837646484375,20.710205078125,-13.322998046875
0.1385,-11.200927734375,20.670166015625,-10.119873046875
0.139,-14.764404296875,20.069580078125,-6.075927734375
0.1395,-17.487060546875,19.028564453125,-2.432373046875
0.14,-19.569091796875,16.786376953125,1.931884765625
0.1405,-20.570068359375,14.504150390625,5.135009765625
0.141,-20.970458984375,11.421142578125,8.658447265625
0.1415,-21.290771484375,8.418212890625,11.901611328125
0.142,-20.570068359375,3.853759765625,15.745361328125
0.1425,-19.008544921875,0.010009765625,18.147705078125
0.143,-17.006591796875,-3.593505859375,19.669189453125
0.1435,-14.764404296875,-7.076904296875,20.990478515625
0.144,-11.160888671875,-10.480224609375,20.830322265625
0.1445,-7.156982421875,-14.083740234375,20.590087890625
0.145,-2.592529296875,-17.166748046875,19.428955078125
0.1455,2.332275390625,-19.288818359375,16.906494140625
0.146,5.575439453125,-20.209716796875,14.824462890625
0.1465,9.018798828125,-20.810302734375,12.181884765625
0.147,12.302001953125,-20.930419921875,9.138916015625
0.1475,16.065673828125,-19.929443359375,4.534423828125
0.148,18.548095703125,-18.327880859375,0.570556640625
0.1485,20.269775390625,-16.205810546875,-3.273193359375
0.149,21.110595703125,-13.763427734375,-6.556396484375
0.1495,21.190673828125,-10.280029296875,-10.079833984375
0.15,21.150634765625,-6.916748046875,-13.443115234375
0.1505,20.429931640625,-2.912841796875,-16.686279296875
0.151,18.387939453125,1.451416015625,-18.968505859375
0.1515,16.065673828125,4.814697265625,-20.049560546875
0.152,13.503173828125,8.298095703125,-21.130615234375
0.1525,9.899658203125,11.701416015625,-21.130615234375
0.153,4.934814453125,15.585205078125,-20.329833984375
0.1535,0.690673828125,18.227783203125,-18.728271484375
0.154,-3.873779296875,20.109619140625,-16.365966796875
0.1545,-7.116943359375,20.790283203125,-14.043701171875
0.155,-10.760498046875,20.990478515625,-10.760498046875
0.1555,-13.963623046875,20.910400390625,-7.717529296875
0.156,-17.326904296875,19.709228515625,-3.233154296875
0.1565,-19.649169921875,17.467041015625,1.291259765625
0.157,-20.850341796875,15.304931640625,4.614501953125
0.1575,-21.611083984375,12.542236328125,8.097900390625
0.158,-21.531005859375,8.978759765625,11.621337890625
0.1585,-21.010498046875,4.814697265625,15.264892578125
0.159,-20.009521484375,1.091064453125,17.947509765625
0.1595,-17.807373046875,-3.193115234375,20.069580078125
0.16,-15.204833984375,-6.476318359375,20.790283203125
0.1605,-12.201904296875,-10.039794921875,21.390869140625
0.161,-8.678466796875,-13.443115234375,21.390869140625
0.1615,-3.353271484375,-16.966552734375,19.909423828125
0.162,1.291259765625,-19.168701171875,17.787353515625
0.1625,5.094970703125,-20.650146484375,15.665283203125
0.163,8.378173828125,-21.210693359375,13.102783203125
0.1635,12.021728515625,-21.090576171875,9.619384765625
0.164,15.344970703125,-20.650146484375,5.935791015625
0.1645,18.267822265625,-19.288818359375,1.811767578125
0.165,20.429931640625,-16.806396484375,-2.792724609375
0.1655,21.150634765625,-14.524169921875,-5.835693359375
0.166,21.711181640625,-11.521240234375,-9.359130859375
0.1665,21.631103515625,-7.997802734375,-12.802490234375
0.167,20.750244140625,-3.713623046875,-16.205810546875
0.1675,19.228759765625,0.210205078125,-18.568115234375
0.168,17.066650390625,4.134033203125,-20.249755859375
0.1685,14.303955078125,7.417236328125,-21.010498046875
0.169,10.860595703125,10.900634765625,-21.170654296875
0.1695,6.856689453125,14.584228515625,-20.970458984375
0.17,1.971923828125,17.707275390625,-19.489013671875
0.1705,-2.832763671875,19.629150390625,-16.846435546875
0.171,-6.075927734375,20.630126953125,-14.884521484375
0.1715,-9.479248046875,21.190673828125,-12.201904296875
0.172,-12.922607421875,20.950439453125,-8.678466796875
0.1725,-16.245849609375,20.109619140625,-4.634521484375
0.173,-18.768310546875,18.427978515625,-0.590576171875
0.1735,-20.610107421875,16.065673828125,3.653564453125
0.174,-21.130615234375,13.463134765625,6.696533203125
0.1745,-21.490966796875,10.219970703125,10.340087890625
0.175,-21.290771484375,6.416259765625,13.903564453125
0.1755,-20.409912109375,2.412353515625,17.026611328125
0.176,-18.327880859375,-1.711669921875,19.108642578125
0.1765,-16.285888671875,-5.195068359375,20.469970703125
0.177,-13.523193359375,-8.478271484375,21.190673828125
0.1775,-9.839599609375,-11.921630859375,21.070556640625
0.178,-5.475341796875,-15.405029296875,20.389892578125
0.1785,-0.710693359375,-18.247802734375,18.708251953125
0.179,3.813720703125,-20.009521484375,16.185791015625
0.1795,6.776611328125,-20.530029296875,14.023681640625
0.18,10.300048828125,-21.010498046875,11.140869140625
0.1805,13.823486328125,-20.650146484375,7.377197265625
0.181,16.906494140625,-19.569091796875,3.413330078125
