wavelength,x,y,z
0.0,-7.837646484375,8.177978515625,-0.670654296875
0.0005,-8.518310546875,7.056884765625,1.131103515625
0.001,-9.158935546875,5.735595703125,3.093017578125
0.0015,-9.479248046875,4.614501953125,4.494384765625
0.002,-9.279052734375,3.052978515625,6.015869140625
0.0025,-8.518310546875,1.251220703125,7.056884765625
0.003,-7.717529296875,-0.630615234375,7.977783203125
0.0035,-6.276123046875,-2.592529296875,8.618408203125
0.004,-4.834716796875,-4.674560546875,9.259033203125
0.0045,-3.072998046875,-6.156005859375,8.978759765625
0.005,-1.431396484375,-7.557373046875,8.738525390625
0.0055,0.210205078125,-8.398193359375,8.017822265625
0.006,1.931884765625,-9.239013671875,7.177001953125
0.0065,3.853759765625,-9.919677734375,5.935791015625
0.007,5.375244140625,-10.199951171875,4.814697265625
0.0075,6.576416015625,-9.759521484375,3.253173828125
0.008,7.537353515625,-9.118896484375,1.771728515625
0.0085,8.258056640625,-8.318115234375,0.130126953125
0.009,8.778564453125,-7.076904296875,-1.671630859375
0.0095,9.419189453125,-5.875732421875,-3.553466796875
0.01,9.419189453125,-4.594482421875,-4.834716796875
0.0105,9.098876953125,-2.872802734375,-6.276123046875
0.011,8.177978515625,-1.151123046875,-7.076904296875
0.0115,7.377197265625,0.610595703125,-7.997802734375
0.012,5.975830078125,2.612548828125,-8.558349609375
0.0125,4.654541015625,4.454345703125,-9.118896484375
0.013,2.892822265625,5.815673828125,-8.678466796875
0.0135,1.411376953125,7.056884765625,-8.438232421875
0.014,-0.150146484375,7.897705078125,-7.797607421875
0.0145,-1.791748046875,8.618408203125,-6.916748046875
0.015,-3.673583984375,9.299072265625,-5.795654296875
0.0155,-4.954833984375,9.299072265625,-4.634521484375
0.016,-6.156005859375,9.018798828125,-3.153076171875
0.0165,-6.956787109375,8.298095703125,-1.671630859375
0.017,-7.757568359375,7.457275390625,0.010009765625
0.0175,-8.318115234375,6.336181640625,1.611572265625
0.018,-8.998779296875,5.415283203125,3.253173828125
0.0185,-8.958740234375,4.174072265625,4.494384765625
0.019,-8.598388671875,2.452392578125,5.895751953125
0.0195,-7.837646484375,0.810791015625,6.776611328125
0.02,-6.956787109375,-0.990966796875,7.697509765625
0.0205,-5.715576171875,-2.872802734375,8.338134765625
0.021,-4.354248046875,-4.514404296875,8.578369140625
0.0215,-2.752685546875,-5.835693359375,8.338134765625
0.022,-1.351318359375,-6.956787109375,8.057861328125
0.0225,0.170166015625,-7.877685546875,7.537353515625
0.023,1.771728515625,-8.598388671875,6.696533203125
0.0235,3.373291015625,-9.359130859375,5.895751953125
0.024,4.494384765625,-9.279052734375,4.774658203125
0.0245,5.775634765625,-9.118896484375,3.333251953125
0.025,6.536376953125,-8.398193359375,1.931884765625
0.0255,7.417236328125,-7.717529296875,0.330322265625
0.026,8.057861328125,-6.796630859375,-1.231201171875
0.0265,8.698486328125,-6.075927734375,-2.672607421875
0.027,8.698486328125,-4.754638671875,-3.993896484375
0.0275,8.258056640625,-3.153076171875,-5.155029296875
0.028,7.697509765625,-1.511474609375,-6.276123046875
0.0285,6.936767578125,0.170166015625,-7.076904296875
0.029,6.015869140625,1.931884765625,-7.957763671875
0.0295,4.814697265625,3.373291015625,-8.157958984375
0.03,3.293212890625,4.854736328125,-8.157958984375
0.0305,1.971923828125,5.895751953125,-7.917724609375
0.031,0.490478515625,7.016845703125,-7.517333984375
0.0315,-1.031005859375,7.817626953125,-6.876708984375
0.032,-2.512451171875,8.538330078125,-6.156005859375
0.0325,-3.713623046875,8.458251953125,-4.994873046875
0.033,-4.994873046875,8.338134765625,-3.673583984375
0.0335,-6.035888671875,7.817626953125,-2.232177734375
0.034,-6.876708984375,7.217041015625,-0.670654296875
0.0345,-7.837646484375,6.656494140625,0.930908203125
0.035,-8.398193359375,5.855712890625,2.252197265625
0.0355,-8.398193359375,4.414306640625,3.773681640625
0.036,-8.037841796875,2.852783203125,5.014892578125
0.0365,-7.557373046875,1.091064453125,6.256103515625
0.037,-6.716552734375,-0.630615234375,7.096923828125
0.0375,-5.755615234375,-2.432373046875,7.937744140625
0.038,-4.434326171875,-3.833740234375,7.977783203125
0.0385,-2.952880859375,-5.395263671875,8.097900390625
0.039,-1.591552734375,-6.516357421875,7.817626953125
0.0395,0.050048828125,-7.557373046875,7.377197265625
0.04,1.651611328125,-8.478271484375,6.696533203125
0.0405,3.052978515625,-8.998779296875,5.855712890625
0.041,4.374267578125,-8.998779296875,4.614501953125
0.0415,5.455322265625,-8.678466796875,3.173095703125
0.042,6.576416015625,-8.157958984375,1.651611328125
0.0425,7.377197265625,-7.397216796875,0.170166015625
0.043,8.298095703125,-6.756591796875,-1.551513671875
0.0435,8.618408203125,-5.715576171875,-2.872802734375
0.044,8.498291015625,-4.114013671875,-4.434326171875
0.0445,7.977783203125,-2.472412109375,-5.555419921875
0.045,7.377197265625,-0.710693359375,-6.716552734375
0.0455,6.496337890625,1.131103515625,-7.597412109375
0.046,5.375244140625,2.852783203125,-8.197998046875
0.0465,3.853759765625,4.334228515625,-8.157958984375
0.047,2.412353515625,5.735595703125,-8.117919921875
0.0475,0.930908203125,6.856689453125,-7.757568359375
0.048,-0.790771484375,7.737548828125,-7.076904296875
0.0485,-2.552490234375,8.698486328125,-6.316162109375
0.049,-3.833740234375,8.738525390625,-5.155029296875
0.0495,-5.275146484375,8.658447265625,-3.713623046875
0.05,-6.236083984375,8.137939453125,-2.232177734375
0.0505,-7.197021484375,7.417236328125,-0.590576171875
0.051,-7.997802734375,6.536376953125,1.251220703125
0.0515,-8.758544921875,5.615478515625,2.892822265625
0.052,-8.758544921875,4.254150390625,4.294189453125
0.0525,-8.398193359375,2.492431640625,5.695556640625
0.053,-7.717529296875,0.770751953125,6.736572265625
0.0535,-6.796630859375,-1.151123046875,7.657470703125
0.054,-5.515380859375,-3.233154296875,8.498291015625
0.0545,-3.913818359375,-4.874755859375,8.538330078125
0.055,-2.352294921875,-6.396240234375,8.458251953125
0.0555,-0.830810546875,-7.437255859375,8.017822265625
0.056,0.890869140625,-8.398193359375,7.377197265625
0.0565,2.732666015625,-9.279052734375,6.376220703125
0.057,4.494384765625,-9.879638671875,5.295166015625
0.0575,5.695556640625,-9.519287109375,3.813720703125
0.058,6.936767578125,-9.158935546875,2.292236328125
0.0585,7.697509765625,-8.278076171875,0.690673828125
0.059,8.378173828125,-7.237060546875,-1.111083984375
0.0595,9.138916015625,-6.115966796875,-3.072998046875
0.06,9.339111328125,-4.754638671875,-4.594482421875
0.0605,9.058837890625,-3.153076171875,-5.955810546875
0.061,8.298095703125,-1.351318359375,-6.956787109375
0.0615,7.457275390625,0.450439453125,-7.837646484375
0.062,6.176025390625,2.412353515625,-8.558349609375
0.0625,4.734619140625,4.574462890625,-9.239013671875
0.063,2.852783203125,6.015869140625,-8.798583984375
0.0635,1.291259765625,7.377197265625,-8.638427734375
0.064,-0.390380859375,8.218017578125,-7.877685546875
0.0645,-2.112060546875,8.938720703125,-6.956787109375
0.065,-4.154052734375,9.659423828125,-5.755615234375
0.0655,-5.755615234375,9.739501953125,-4.394287109375
0.066,-6.916748046875,9.259033203125,-2.672607421875
0.0665,-7.877685546875,8.618408203125,-1.111083984375
0.067,-8.518310546875,7.537353515625,0.690673828125
0.0675,-9.078857421875,6.296142578125,2.532470703125
0.068,-9.799560546875,4.974853515625,4.574462890625
0.0685,-9.439208984375,3.293212890625,5.935791015625
0.069,-8.998779296875,1.531494140625,7.297119140625
0.0695,-7.997802734375,-0.350341796875,8.057861328125
0.07,-6.876708984375,-2.232177734375,8.818603515625
0.0705,-5.275146484375,-4.394287109375,9.459228515625
0.071,-3.513427734375,-6.396240234375,9.619384765625
0.0715,-1.551513671875,-7.637451171875,8.898681640625
0.072,0.010009765625,-8.758544921875,8.578369140625
0.0725,1.891845703125,-9.559326171875,7.497314453125
0.073,3.693603515625,-10.119873046875,6.256103515625
0.0735,5.735595703125,-10.880615234375,4.974853515625
0.074,7.016845703125,-10.320068359375,3.373291015625
0.0745,8.137939453125,-9.719482421875,1.731689453125
0.075,8.778564453125,-8.678466796875,0.050048828125
0.0755,9.259033203125,-7.397216796875,-1.791748046875
0.076,9.739501953125,-6.035888671875,-3.633544921875
0.0765,10.179931640625,-4.594482421875,-5.595458984375
0.077,9.459228515625,-2.752685546875,-6.756591796875
0.0775,8.898681640625,-1.031005859375,-7.837646484375
0.078,7.657470703125,0.850830078125,-8.478271484375
0.0785,6.416259765625,2.652587890625,-9.078857421875
0.079,4.814697265625,4.894775390625,-9.679443359375
0.0795,2.932861328125,6.536376953125,-9.439208984375
0.08,1.171142578125,7.697509765625,-8.838623046875
0.0805,-0.430419921875,8.618408203125,-8.278076171875
0.081,-2.232177734375,9.218994140625,-7.156982421875
0.0815,-3.993896484375,9.699462890625,-5.995849609375
0.082,-5.875732421875,10.300048828125,-4.674560546875
0.0825,-6.916748046875,9.499267578125,-2.872802734375
0.083,-8.037841796875,9.018798828125,-1.351318359375
0.0835,-8.598388671875,7.817626953125,0.410400390625
0.084,-8.998779296875,6.656494140625,2.052001953125
0.0845,-9.599365234375,5.335205078125,3.973876953125
0.085,-9.719482421875,3.853759765625,5.575439453125
0.0855,-9.038818359375,2.092041015625,6.696533203125
0.086,-8.398193359375,0.370361328125,7.817626953125
0.0865,-7.197021484375,-1.471435546875,8.378173828125
0.087,-5.955810546875,-3.233154296875,8.978759765625
0.0875,-4.314208984375,-5.435302734375,9.459228515625
0.088,-2.432373046875,-6.756591796875,8.938720703125
0.0885,-0.910888671875,-8.037841796875,8.618408203125
0.089,0.730712890625,-8.798583984375,7.817626953125
0.0895,2.412353515625,-9.439208984375,6.776611328125
0.09,4.174072265625,-9.959716796875,5.735595703125
0.0905,5.735595703125,-10.239990234375,4.494384765625
0.091,6.736572265625,-9.479248046875,2.852783203125
0.0915,7.737548828125,-8.958740234375,1.331298828125
0.092,8.258056640625,-7.837646484375,-0.310302734375
0.0925,8.778564453125,-6.836669921875,-1.871826171875
0.093,9.419189453125,-5.635498046875,-3.713623046875
0.0935,9.259033203125,-4.194091796875,-5.074951171875
0.094,8.778564453125,-2.592529296875,-6.156005859375
0.0945,7.977783203125,-0.990966796875,-7.076904296875
0.095,7.056884765625,0.730712890625,-7.797607421875
0.0955,6.015869140625,2.492431640625,-8.478271484375
0.096,4.494384765625,4.414306640625,-8.918701171875
0.0965,2.812744140625,5.615478515625,-8.398193359375
0.097,1.331298828125,6.856689453125,-8.278076171875
0.0975,-0.150146484375,7.617431640625,-7.637451171875
0.098,-1.631591796875,8.378173828125,-6.836669921875
0.0985,-3.393310546875,9.138916015625,-5.915771484375
0.099,-4.714599609375,9.098876953125,-4.634521484375
0.0995,-5.835693359375,8.698486328125,-3.193115234375
0.1,-6.756591796875,8.177978515625,-1.751708984375
0.1005,-7.437255859375,7.337158203125,-0.230224609375
0.101,-8.197998046875,6.456298828125,1.411376953125
0.1015,-8.838623046875,5.455322265625,3.133056640625
0.102,-8.678466796875,4.093994140625,4.334228515625
0.1025,-8.398193359375,2.492431640625,5.735595703125
0.103,-7.677490234375,0.890869140625,6.536376953125
0.1035,-6.876708984375,-0.830810546875,7.457275390625
0.104,-5.755615234375,-2.672607421875,8.137939453125
0.1045,-4.314208984375,-4.434326171875,8.378173828125
0.105,-2.792724609375,-5.715576171875,8.177978515625
0.1055,-1.351318359375,-6.956787109375,7.977783203125
0.106,0.170166015625,-7.717529296875,7.417236328125
0.1065,1.651611328125,-8.518310546875,6.736572265625
0.107,3.373291015625,-9.319091796875,5.895751953125
0.1075,4.494384765625,-9.118896484375,4.534423828125
0.108,5.775634765625,-8.958740234375,3.213134765625
0.1085,6.616455078125,-8.318115234375,1.771728515625
0.109,7.417236328125,-7.557373046875,0.250244140625
0.1095,8.218017578125,-6.756591796875,-1.391357421875
0.11,8.778564453125,-5.755615234375,-2.992919921875
0.1105,8.618408203125,-4.394287109375,-4.194091796875
0.111,8.258056640625,-2.752685546875,-5.515380859375
0.1115,7.537353515625,-1.151123046875,-6.436279296875
0.112,6.856689453125,0.570556640625,-7.397216796875
0.1125,5.735595703125,2.412353515625,-8.197998046875
0.113,4.254150390625,3.893798828125,-8.197998046875
0.1135,2.812744140625,5.295166015625,-8.197998046875
0.114,1.411376953125,6.456298828125,-7.917724609375
0.1145,-0.150146484375,7.377197265625,-7.357177734375
0.115,-1.751708984375,8.298095703125,-6.716552734375
0.1155,-3.353271484375,8.858642578125,-5.675537109375
0.116,-4.554443359375,8.618408203125,-4.314208984375
0.1165,-5.875732421875,8.418212890625,-2.872802734375
0.117,-6.676513671875,7.697509765625,-1.351318359375
0.1175,-7.597412109375,7.016845703125,0.290283203125
0.118,-8.398193359375,6.176025390625,2.011962890625
0.1185,-8.718505859375,4.974853515625,3.533447265625
0.119,-8.478271484375,3.453369140625,4.854736328125
0.1195,-8.037841796875,1.731689453125,6.135986328125
0.12,-7.277099609375,0.010009765625,7.056884765625
0.1205,-6.396240234375,-1.871826171875,7.977783203125
0.121,-4.954833984375,-3.913818359375,8.538330078125
0.1215,-3.273193359375,-5.315185546875,8.298095703125
0.122,-1.831787109375,-6.716552734375,8.298095703125
0.1225,-0.270263671875,-7.717529296875,7.737548828125
0.123,1.411376953125,-8.558349609375,6.976806640625
0.1235,3.253173828125,-9.479248046875,6.095947265625
0.124,4.774658203125,-9.639404296875,4.854736328125
0.1245,5.975830078125,-9.239013671875,3.333251953125
0.125,7.056884765625,-8.758544921875,1.771728515625
0.1255,7.737548828125,-7.757568359375,0.130126953125
0.126,8.538330078125,-6.916748046875,-1.591552734375
0.1265,9.299072265625,-5.755615234375,-3.553466796875
0.127,9.058837890625,-4.154052734375,-4.874755859375
0.1275,8.658447265625,-2.552490234375,-6.156005859375
0.128,7.817626953125,-0.750732421875,-7.116943359375
0.1285,6.896728515625,1.010986328125,-7.957763671875
0.129,5.695556640625,3.052978515625,-8.758544921875
0.1295,3.973876953125,4.974853515625,-8.998779296875
0.13,2.252197265625,6.296142578125,-8.558349609375
0.1305,0.730712890625,7.537353515625,-8.318115234375
0.131,-1.111083984375,8.378173828125,-7.357177734375
0.1315,-2.792724609375,9.058837890625,-6.396240234375
0.132,-4.714599609375,9.779541015625,-5.275146484375
0.1325,-6.035888671875,9.379150390625,-3.673583984375
0.133,-7.197021484375,8.938720703125,-2.072021484375
0.1335,-8.037841796875,8.057861328125,-0.390380859375
0.134,-8.638427734375,6.856689453125,1.451416015625
0.1345,-9.279052734375,5.775634765625,3.213134765625
0.135,-9.719482421875,4.334228515625,5.135009765625
0.1355,-9.078857421875,2.492431640625,6.376220703125
0.136,-8.598388671875,0.730712890625,7.657470703125
0.1365,-7.277099609375,-1.311279296875,8.298095703125
0.137,-6.075927734375,-3.233154296875,8.978759765625
0.1375,-4.434326171875,-5.395263671875,9.459228515625
0.138,-2.552490234375,-6.956787109375,9.218994140625
0.1385,-0.830810546875,-8.077880859375,8.658447265625
0.139,0.890869140625,-9.078857421875,8.017822265625
0.1395,2.932861328125,-9.719482421875,6.656494140625
0.14,4.614501953125,-10.239990234375,5.615478515625
0.1405,6.336181640625,-10.640380859375,4.334228515625
0.141,7.337158203125,-9.759521484375,2.532470703125
0.1415,8.338134765625,-9.158935546875,0.930908203125
0.142,8.898681640625,-7.877685546875,-0.950927734375
0.1425,9.339111328125,-6.596435546875,-2.672607421875
0.143,9.859619140625,-5.395263671875,-4.434326171875
0.1435,9.819580078125,-3.713623046875,-6.115966796875
0.144,8.938720703125,-1.911865234375,-7.076904296875
0.1445,8.218017578125,-0.270263671875,-8.117919921875
0.145,6.736572265625,1.771728515625,-8.598388671875
0.1455,5.615478515625,3.533447265625,-9.279052734375
0.146,3.933837890625,5.615478515625,-9.479248046875
0.1465,2.052001953125,6.896728515625,-8.918701171875
0.147,0.490478515625,7.977783203125,-8.398193359375
0.1475,-1.271240234375,8.778564453125,-7.597412109375
0.148,-3.072998046875,9.259033203125,-6.396240234375
0.1485,-4.634521484375,9.779541015625,-5.315185546875
0.149,-6.115966796875,9.779541015625,-3.953857421875
0.1495,-7.076904296875,8.978759765625,-2.272216796875
0.15,-7.997802734375,8.338134765625,-0.710693359375
0.1505,-8.398193359375,7.056884765625,1.091064453125
0.151,-8.958740234375,6.055908203125,2.612548828125
0.1515,-9.479248046875,4.854736328125,4.334228515625
0.152,-9.158935546875,3.173095703125,5.735595703125
0.1525,-8.478271484375,1.571533203125,6.776611328125
0.153,-7.717529296875,-0.310302734375,7.697509765625
0.1535,-6.396240234375,-1.951904296875,8.258056640625
0.154,-5.315185546875,-3.793701171875,8.778564453125
0.1545,-3.673583984375,-5.555419921875,8.978759765625
0.155,-1.951904296875,-6.716552734375,8.418212890625
0.1555,-0.510498046875,-7.837646484375,8.097900390625
0.156,1.171142578125,-8.518310546875,7.177001953125
0.1565,2.692626953125,-9.158935546875,6.336181640625
0.157,4.254150390625,-9.759521484375,5.415283203125
0.1575,5.495361328125,-9.519287109375,4.013916015625
0.158,6.456298828125,-8.998779296875,2.612548828125
0.1585,7.377197265625,-8.318115234375,1.091064453125
0.159,7.857666015625,-7.317138671875,-0.510498046875
0.1595,8.618408203125,-6.556396484375,-1.951904296875
0.16,9.058837890625,-5.435302734375,-3.633544921875
0.1605,8.778564453125,-3.873779296875,-4.834716796875
0.161,8.298095703125,-2.392333984375,-5.955810546875
0.1615,7.457275390625,-0.630615234375,-6.716552734375
0.162,6.696533203125,0.930908203125,-7.637451171875
0.1625,5.695556640625,2.652587890625,-8.318115234375
0.163,4.134033203125,4.294189453125,-8.358154296875
0.1635,2.692626953125,5.455322265625,-8.157958984375
0.164,1.291259765625,6.696533203125,-7.957763671875
0.1645,-0.270263671875,7.377197265625,-7.277099609375
0.165,-1.751708984375,8.258056640625,-6.636474609375
0.1655,-3.273193359375,8.818603515625,-5.755615234375
0.166,-4.474365234375,8.578369140625,-4.314208984375
0.1665,-5.635498046875,8.378173828125,-3.032958984375
0.167,-6.556396484375,7.697509765625,-1.511474609375
0.1675,-7.357177734375,7.056884765625,0.050048828125
0.168,-8.197998046875,6.376220703125,1.571533203125
0.1685,-8.478271484375,5.215087890625,3.133056640625
0.169,-8.358154296875,3.693603515625,4.414306640625
0.1695,-8.117919921875,2.052001953125,5.775634765625
0.17,-7.237060546875,0.450439453125,6.616455078125
0.1705,-6.556396484375,-1.271240234375,7.617431640625
0.171,-5.315185546875,-3.072998046875,8.177978515625
0.1715,-3.833740234375,-4.554443359375,8.137939453125
0.172,-2.432373046875,-5.915771484375,8.057861328125
0.1725,-0.990966796875,-7.076904296875,7.777587890625
0.173,0.610595703125,-7.877685546875,7.136962890625
0.1735,2.212158203125,-8.838623046875,6.536376953125
0.174,3.693603515625,-9.239013671875,5.455322265625
0.1745,4.934814453125,-8.958740234375,4.013916015625
0.175,6.095947265625,-8.678466796875,2.572509765625
0.1755,6.896728515625,-7.877685546875,1.091064453125
0.176,7.817626953125,-7.237060546875,-0.510498046875
0.1765,8.698486328125,-6.356201171875,-2.112060546875
0.177,8.698486328125,-5.114990234375,-3.673583984375
0.1775,8.338134765625,-3.633544921875,-4.834716796875
0.178,7.937744140625,-1.871826171875,-6.115966796875
0.1785,7.096923828125,-0.270263671875,-6.956787109375
0.179,6.376220703125,1.571533203125,-7.957763671875
0.1795,4.974853515625,3.413330078125,-8.318115234375
0.18,3.373291015625,4.814697265625,-8.197998046875
0.1805,1.931884765625,6.135986328125,-8.077880859375
0.181,0.450439453125,7.096923828125,-7.597412109375
0.1815,-1.191162109375,7.977783203125,-6.916748046875
0.182,-2.832763671875,8.778564453125,-6.115966796875
0.1825,-4.274169921875,8.818603515625,-4.794677734375
0.183,-5.435302734375,8.538330078125,-3.353271484375
0.1835,-6.596435546875,8.097900390625,-1.791748046875
0.184,-7.277099609375,7.136962890625,-0.150146484375
0.1845,-8.157958984375,6.496337890625,1.451416015625
0.185,-8.838623046875,5.335205078125,3.213134765625
0.1855,-8.638427734375,3.733642578125,4.614501953125
0.186,-8.318115234375,2.172119140625,5.935791015625
0.1865,-7.517333984375,0.370361328125,6.896728515625
0.187,-6.556396484375,-1.431396484375,7.737548828125
0.1875,-5.395263671875,-3.313232421875,8.458251953125
0.188,-3.793701171875,-5.074951171875,8.578369140625
