wavelength,x,y,z
0.0,1.7216796875,1.521484375,-3.603515625
0.0005,1.0810546875,2.162109375,-3.68359375
0.001,0.2802734375,2.4423828125,-3.203125
0.0015,-0.400390625,3.0029296875,-3.0830078125
0.002,-1.3212890625,3.283203125,-2.3623046875
0.0025,-1.8818359375,3.5634765625,-2.08203125
0.003,-2.3623046875,3.3232421875,-1.44140625
0.0035,-2.8427734375,3.36328125,-1.041015625
0.004,-3.1630859375,2.8828125,-0.240234375
0.0045,-3.5234375,2.7626953125,0.2802734375
0.005,-3.84375,2.2421875,1.12109375
0.0055,-3.8837890625,1.921875,1.521484375
0.006,-3.8837890625,1.1611328125,2.2021484375
0.0065,-3.4833984375,0.400390625,2.5625
0.007,-3.3232421875,-0.400390625,3.1630859375
0.0075,-2.8427734375,-1.1611328125,3.443359375
0.008,-2.5625,-1.8017578125,3.8037109375
0.0085,-1.9619140625,-2.2822265625,3.5234375
0.009,-1.4013671875,-2.9228515625,3.6435546875
0.0095,-0.48046875,-3.2431640625,3.04296875
0.01,0.2802734375,-3.8037109375,2.8828125
0.0105,1.28125,-4.0439453125,2.2021484375
0.011,1.7216796875,-4.1640625,1.841796875
0.0115,2.2421875,-4.00390625,1.12109375
0.012,2.6025390625,-3.84375,0.6005859375
0.0125,3.04296875,-3.4833984375,-0.1201171875
0.013,3.3232421875,-3.0830078125,-0.80078125
0.0135,3.68359375,-2.642578125,-1.6015625
0.014,3.36328125,-1.9619140625,-1.9619140625
0.0145,3.4033203125,-1.28125,-2.642578125
0.015,2.7626953125,-0.3203125,-2.8828125
0.0155,2.6826171875,0.2802734375,-3.443359375
0.016,2.001953125,1.201171875,-3.68359375
0.0165,1.7216796875,1.6416015625,-3.84375
0.017,0.9609375,2.08203125,-3.5234375
0.0175,0.400390625,2.6025390625,-3.5234375
0.018,-0.5205078125,2.962890625,-2.8828125
0.0185,-1.28125,3.4033203125,-2.5625
0.019,-2.2421875,3.68359375,-1.8818359375
0.0195,-2.5625,3.4833984375,-1.3212890625
0.02,-3.123046875,3.4033203125,-0.7607421875
0.0205,-3.36328125,3.0029296875,-0.1201171875
0.021,-3.7236328125,2.72265625,0.560546875
0.0215,-3.923828125,2.162109375,1.28125
0.022,-4.2041015625,1.76171875,1.9619140625
0.0225,-3.8037109375,0.9208984375,2.40234375
0.023,-3.84375,0.2802734375,3.0029296875
0.0235,-3.0830078125,-0.720703125,3.203125
0.024,-2.9228515625,-1.3212890625,3.68359375
0.0245,-2.2021484375,-2.3623046875,3.8837890625
0.025,-1.681640625,-2.7626953125,3.763671875
0.0255,-1.0009765625,-3.283203125,3.5234375
0.026,-0.2802734375,-3.6435546875,3.283203125
0.0265,0.640625,-4.00390625,2.72265625
0.027,1.521484375,-4.32421875,2.2021484375
0.0275,2.4423828125,-4.5244140625,1.521484375
0.028,2.72265625,-4.083984375,0.80078125
0.0285,3.283203125,-4.1640625,0.2802734375
0.029,3.443359375,-3.4833984375,-0.560546875
0.0295,3.763671875,-3.123046875,-1.201171875
0.03,3.923828125,-2.3623046875,-2.1220703125
0.0305,3.923828125,-1.76171875,-2.72265625
0.031,3.4033203125,-0.80078125,-3.123046875
0.0315,3.203125,0.0,-3.603515625
0.032,2.4423828125,0.9208984375,-3.8037109375
0.0325,2.08203125,1.5615234375,-4.1240234375
0.033,1.3212890625,2.5625,-4.32421875
0.0335,0.560546875,2.8427734375,-3.84375
0.034,-0.1201171875,3.36328125,-3.6435546875
0.0345,-1.041015625,3.6435546875,-3.0029296875
0.035,-1.921875,3.8837890625,-2.4423828125
0.0355,-2.7626953125,4.0439453125,-1.7216796875
0.036,-3.5634765625,4.1240234375,-1.0009765625
0.0365,-3.7236328125,3.4833984375,-0.2001953125
0.037,-4.2041015625,3.443359375,0.2802734375
0.0375,-4.2841796875,2.5625,1.2412109375
0.038,-4.5244140625,2.2021484375,1.841796875
0.0385,-4.64453125,1.361328125,2.7626953125
0.039,-4.3642578125,0.6005859375,3.1630859375
0.0395,-3.84375,-0.3203125,3.603515625
0.04,-3.4833984375,-1.12109375,3.9638671875
0.0405,-2.6025390625,-2.162109375,4.1240234375
0.041,-2.2021484375,-2.8427734375,4.32421875
0.0415,-1.361328125,-3.7236328125,4.32421875
0.042,-0.5205078125,-3.923828125,3.7236328125
0.0425,0.16015625,-4.4443359375,3.6435546875
0.043,1.3212890625,-4.64453125,2.6826171875
0.0435,2.162109375,-4.8447265625,2.08203125
0.044,3.04296875,-4.884765625,1.28125
0.0445,3.6435546875,-4.8046875,0.560546875
0.045,3.84375,-4.1240234375,-0.2802734375
0.0455,4.244140625,-3.923828125,-0.880859375
0.046,4.32421875,-2.8828125,-2.001953125
0.0465,4.4443359375,-2.4423828125,-2.5224609375
0.047,4.484375,-1.5615234375,-3.4833984375
0.0475,3.923828125,-0.6005859375,-3.84375
0.048,3.443359375,0.3603515625,-4.244140625
0.0485,2.72265625,1.3212890625,-4.5244140625
0.049,1.8818359375,2.40234375,-4.6845703125
0.0495,1.3212890625,2.8828125,-4.6845703125
0.05,0.400390625,3.84375,-4.564453125
0.0505,-0.6005859375,3.9638671875,-3.763671875
0.051,-1.28125,4.4443359375,-3.5634765625
0.0515,-2.6826171875,4.6044921875,-2.322265625
0.052,-3.36328125,4.64453125,-1.7216796875
0.0525,-4.1640625,4.484375,-0.80078125
0.053,-4.64453125,4.2041015625,0.0
0.0535,-4.7646484375,3.4833984375,0.880859375
0.054,-5.0849609375,3.0830078125,1.521484375
0.0545,-5.1650390625,1.921875,2.72265625
0.055,-5.0048828125,1.4013671875,3.123046875
0.0555,-5.0048828125,0.48046875,4.00390625
0.056,-4.2041015625,-0.6005859375,4.2041015625
0.0565,-3.7236328125,-1.4814453125,4.6044921875
0.057,-2.8828125,-2.642578125,4.8046875
0.0575,-1.9619140625,-3.603515625,4.8447265625
0.058,-1.28125,-4.00390625,4.6044921875
0.0585,-0.3603515625,-4.8046875,4.484375
0.059,0.640625,-4.884765625,3.5634765625
0.0595,1.361328125,-5.28515625,3.283203125
0.06,2.8427734375,-5.4453125,1.921875
0.0605,3.443359375,-5.4453125,1.361328125
0.061,4.1240234375,-5.125,0.3603515625
0.0615,4.564453125,-4.724609375,-0.4404296875
0.062,4.64453125,-3.9638671875,-1.28125
0.0625,4.9248046875,-3.4033203125,-2.0419921875
0.063,5.044921875,-2.2822265625,-3.2431640625
0.0635,4.724609375,-1.6416015625,-3.5634765625
0.064,4.6044921875,-0.640625,-4.4443359375
0.0645,3.6435546875,0.48046875,-4.64453125
0.065,3.1630859375,1.3212890625,-4.96484375
0.0655,2.1220703125,2.5224609375,-5.125
0.066,1.3212890625,3.4833984375,-5.1650390625
0.0665,0.48046875,3.84375,-4.6845703125
0.067,-0.5205078125,4.6044921875,-4.484375
0.0675,-1.4814453125,4.6044921875,-3.4833984375
0.068,-2.2822265625,5.0048828125,-3.123046875
0.0685,-3.8037109375,5.0849609375,-1.7216796875
0.069,-4.244140625,4.9248046875,-1.0810546875
0.0695,-4.884765625,4.484375,0.0
0.07,-5.2451171875,4.00390625,0.7607421875
0.0705,-5.28515625,3.203125,1.6015625
0.071,-5.4453125,2.5224609375,2.4423828125
0.0715,-5.5654296875,1.4814453125,3.5634765625
0.072,-5.0048828125,0.6806640625,3.84375
0.0725,-4.8447265625,-0.3203125,4.5244140625
0.073,-3.84375,-1.4814453125,4.64453125
0.0735,-3.4033203125,-2.2421875,4.9248046875
0.074,-2.2822265625,-3.443359375,5.044921875
0.0745,-1.5615234375,-4.1640625,5.044921875
0.075,-0.6005859375,-4.5244140625,4.404296875
0.0755,0.2802734375,-5.1650390625,4.1640625
0.076,1.28125,-5.1650390625,3.2431640625
0.0765,2.08203125,-5.4853515625,2.7626953125
0.077,3.5234375,-5.6455078125,1.4814453125
0.0775,3.84375,-5.28515625,0.80078125
0.078,4.484375,-4.9248046875,-0.16015625
0.0785,4.724609375,-4.3642578125,-1.0009765625
0.079,4.8046875,-3.68359375,-1.7216796875
0.0795,4.9248046875,-2.802734375,-2.6025390625
0.08,5.0849609375,-1.9619140625,-3.603515625
0.0805,4.404296875,-1.12109375,-3.8837890625
0.081,4.2841796875,-0.2001953125,-4.64453125
0.0815,3.1630859375,1.041015625,-4.6845703125
0.082,2.8427734375,1.76171875,-5.0048828125
0.0825,1.6015625,3.04296875,-5.044921875
0.083,1.041015625,3.603515625,-5.0048828125
0.0835,0.0,4.00390625,-4.32421875
0.084,-0.880859375,4.5244140625,-4.0439453125
0.0845,-1.8818359375,4.6044921875,-3.123046875
0.085,-2.6826171875,4.8447265625,-2.5625
0.0855,-4.00390625,5.0048828125,-1.4013671875
0.086,-4.244140625,4.484375,-0.640625
0.0865,-4.8447265625,4.1640625,0.240234375
0.087,-5.0048828125,3.4833984375,1.041015625
0.0875,-5.1650390625,2.9228515625,1.7216796875
0.088,-5.1650390625,1.9619140625,2.6826171875
0.0885,-5.28515625,1.28125,3.5234375
0.089,-4.5244140625,0.240234375,3.763671875
0.0895,-4.4443359375,-0.640625,4.404296875
0.09,-3.36328125,-1.681640625,4.4443359375
0.0905,-3.0830078125,-2.322265625,4.7646484375
0.091,-1.9619140625,-3.5634765625,4.8046875
0.0915,-1.28125,-3.923828125,4.5244140625
0.092,-0.3203125,-4.4443359375,4.083984375
0.0925,0.48046875,-4.8046875,3.68359375
0.093,1.361328125,-4.96484375,2.9228515625
0.0935,2.2822265625,-5.1650390625,2.2421875
0.094,3.4033203125,-5.3251953125,1.3212890625
0.0945,3.603515625,-4.6845703125,0.5205078125
0.095,4.2041015625,-4.6044921875,-0.16015625
0.0955,4.2041015625,-3.763671875,-1.041015625
0.096,4.484375,-3.4033203125,-1.6416015625
0.0965,4.5244140625,-2.4423828125,-2.72265625
0.097,4.5244140625,-1.8818359375,-3.283203125
0.0975,3.8837890625,-0.80078125,-3.7236328125
0.098,3.68359375,0.0400390625,-4.2041015625
0.0985,2.72265625,1.12109375,-4.2841796875
0.099,2.40234375,1.76171875,-4.564453125
0.0995,1.4814453125,2.8427734375,-4.724609375
0.1,0.7607421875,3.123046875,-4.244140625
0.1005,-0.080078125,3.7236328125,-4.00390625
0.101,-0.9609375,3.923828125,-3.36328125
0.1015,-1.681640625,4.2041015625,-2.8828125
0.102,-2.6826171875,4.32421875,-2.08203125
0.1025,-3.5234375,4.4443359375,-1.3212890625
0.103,-3.7236328125,3.8037109375,-0.5205078125
0.1035,-4.2841796875,3.8037109375,0.080078125
0.104,-4.32421875,2.9228515625,0.9208984375
0.1045,-4.564453125,2.6025390625,1.44140625
0.105,-4.724609375,1.76171875,2.4423828125
0.1055,-4.5244140625,1.201171875,2.802734375
0.106,-4.1640625,0.240234375,3.36328125
0.1065,-3.8037109375,-0.560546875,3.763671875
0.107,-3.1630859375,-1.44140625,3.9638671875
0.1075,-2.6826171875,-2.162109375,4.2041015625
0.108,-2.001953125,-3.04296875,4.404296875
0.1085,-1.2412109375,-3.2431640625,3.84375
0.109,-0.6005859375,-3.9638671875,3.8837890625
0.1095,0.3603515625,-4.1240234375,3.0830078125
0.11,1.12109375,-4.5244140625,2.802734375
0.1105,2.1220703125,-4.64453125,1.921875
0.111,2.6826171875,-4.6845703125,1.4013671875
0.1115,3.0830078125,-4.2041015625,0.560546875
0.112,3.4833984375,-4.1240234375,0.080078125
0.1125,3.68359375,-3.4833984375,-0.80078125
0.113,3.8837890625,-3.123046875,-1.4013671875
0.1135,4.1240234375,-2.4423828125,-2.322265625
0.114,3.763671875,-1.681640625,-2.6025390625
0.1145,3.603515625,-0.8408203125,-3.2431640625
0.115,2.962890625,0.080078125,-3.5234375
0.1155,2.642578125,0.80078125,-3.8837890625
0.116,2.0419921875,1.5615234375,-4.0439453125
0.1165,1.5615234375,2.2421875,-4.1640625
0.117,0.720703125,2.5224609375,-3.6435546875
0.1175,0.16015625,3.123046875,-3.68359375
0.118,-0.80078125,3.3232421875,-2.8828125
0.1185,-1.44140625,3.68359375,-2.642578125
0.119,-2.4423828125,3.84375,-1.8818359375
0.1195,-2.72265625,3.68359375,-1.4013671875
0.12,-3.2431640625,3.4833984375,-0.640625
0.1205,-3.5234375,3.1630859375,-0.16015625
0.121,-3.84375,2.72265625,0.6005859375
0.1215,-4.00390625,2.2822265625,1.201171875
0.122,-4.2841796875,1.8818359375,1.921875
0.1225,-3.84375,1.12109375,2.2421875
0.123,-3.923828125,0.48046875,2.9228515625
0.1235,-3.203125,-0.5205078125,3.1630859375
0.124,-3.1630859375,-1.12109375,3.68359375
0.1245,-2.4423828125,-1.9619140625,3.84375
0.125,-2.1220703125,-2.322265625,3.84375
0.1255,-1.28125,-2.8828125,3.5234375
0.126,-0.720703125,-3.36328125,3.4833984375
0.1265,0.240234375,-3.7236328125,2.8427734375
0.127,0.9609375,-4.1240234375,2.5625
0.1275,1.8017578125,-4.32421875,1.921875
0.128,2.08203125,-4.0439453125,1.4013671875
0.1285,2.72265625,-4.1240234375,0.80078125
0.129,2.9228515625,-3.68359375,0.0400390625
0.1295,3.36328125,-3.443359375,-0.6005859375
0.13,3.5234375,-2.802734375,-1.3212890625
0.1305,3.763671875,-2.4423828125,-1.841796875
0.131,3.283203125,-1.4814453125,-2.322265625
0.1315,3.3232421875,-0.9208984375,-2.9228515625
0.132,2.642578125,0.080078125,-3.203125
0.1325,2.5224609375,0.640625,-3.68359375
0.133,1.921875,1.521484375,-3.84375
0.1335,1.44140625,1.8017578125,-3.68359375
0.134,0.7607421875,2.40234375,-3.5634765625
0.1345,0.0,2.7626953125,-3.203125
0.135,-0.80078125,3.1630859375,-2.802734375
0.1355,-1.6015625,3.443359375,-2.2822265625
0.136,-2.2421875,3.6435546875,-1.8017578125
0.1365,-2.5625,3.203125,-1.1611328125
0.137,-3.0830078125,3.3232421875,-0.7607421875
0.1375,-3.283203125,2.72265625,0.0400390625
0.138,-3.68359375,2.642578125,0.6005859375
0.1385,-3.8837890625,2.0419921875,1.361328125
0.139,-3.8837890625,1.681640625,1.7216796875
0.1395,-3.603515625,0.7607421875,2.322265625
0.14,-3.4833984375,0.2001953125,2.7626953125
0.1405,-3.04296875,-0.6806640625,3.1630859375
0.141,-2.802734375,-1.28125,3.5234375
0.1415,-2.322265625,-1.9619140625,3.68359375
0.142,-1.76171875,-2.2822265625,3.4033203125
0.1425,-1.1611328125,-2.962890625,3.5234375
0.143,-0.2802734375,-3.283203125,2.9228515625
0.1435,0.4404296875,-3.8037109375,2.72265625
0.144,1.28125,-4.00390625,2.08203125
0.1445,1.76171875,-4.1640625,1.76171875
0.145,2.2421875,-3.8837890625,1.0009765625
0.1455,2.6826171875,-3.923828125,0.6005859375
0.146,3.04296875,-3.3232421875,-0.2802734375
0.1465,3.36328125,-3.0830078125,-0.8408203125
0.147,3.6435546875,-2.5625,-1.6416015625
0.1475,3.36328125,-1.921875,-2.001953125
0.148,3.3232421875,-1.12109375,-2.72265625
0.1485,2.802734375,-0.2802734375,-3.04296875
0.149,2.5625,0.48046875,-3.5234375
0.1495,2.08203125,1.201171875,-3.763671875
0.15,1.6015625,1.8017578125,-3.84375
0.1505,0.8408203125,2.2021484375,-3.4033203125
0.151,0.2802734375,2.7626953125,-3.4833984375
0.1515,-0.720703125,3.04296875,-2.72265625
0.152,-1.4013671875,3.4833984375,-2.5224609375
0.1525,-2.2822265625,3.5234375,-1.8017578125
0.153,-2.6025390625,3.36328125,-1.28125
0.1535,-3.0830078125,3.1630859375,-0.640625
0.154,-3.36328125,2.962890625,0.0
0.1545,-3.68359375,2.482421875,0.720703125
0.155,-3.8837890625,2.08203125,1.3212890625
0.1555,-4.083984375,1.5615234375,2.001953125
0.156,-3.603515625,0.720703125,2.3623046875
0.1565,-3.6435546875,0.1201171875,3.0029296875
0.157,-2.9228515625,-0.80078125,3.203125
0.1575,-2.7626953125,-1.4814453125,3.6435546875
0.158,-2.08203125,-2.2421875,3.763671875
0.1585,-1.6015625,-2.72265625,3.68359375
0.159,-0.880859375,-3.0830078125,3.3232421875
0.1595,-0.2001953125,-3.603515625,3.1630859375
0.16,0.8408203125,-3.8837890625,2.482421875
0.1605,1.4814453125,-4.244140625,2.08203125
0.161,2.2822265625,-4.3642578125,1.4013671875
0.1615,2.6025390625,-4.00390625,0.7607421875
0.162,3.123046875,-3.8837890625,0.240234375
0.1625,3.3232421875,-3.36328125,-0.6005859375
0.163,3.68359375,-2.962890625,-1.28125
0.1635,3.763671875,-2.322265625,-1.9619140625
0.164,3.84375,-1.7216796875,-2.6025390625
0.1645,3.1630859375,-0.6806640625,-2.962890625
0.165,3.123046875,0.0,-3.5634765625
0.1655,2.2421875,1.041015625,-3.7236328125
0.166,2.0419921875,1.6416015625,-4.1240234375
0.1665,1.28125,2.40234375,-4.0439453125
0.167,0.5205078125,2.8427734375,-3.763671875
0.1675,-0.2001953125,3.2431640625,-3.4033203125
0.168,-1.1611328125,3.6435546875,-2.9228515625
0.1685,-2.2021484375,3.84375,-2.1220703125
0.169,-2.7626953125,3.8837890625,-1.6416015625
0.1695,-3.4833984375,3.84375,-0.9609375
0.17,-3.68359375,3.3232421875,-0.16015625
0.1705,-4.083984375,3.203125,0.400390625
0.171,-4.2041015625,2.322265625,1.4013671875
0.1715,-4.4443359375,1.921875,2.0419921875
0.172,-4.32421875,1.12109375,2.6826171875
0.1725,-4.1640625,0.48046875,3.1630859375
0.173,-3.4833984375,-0.560546875,3.4833984375
0.1735,-3.2431640625,-1.28125,3.8837890625
0.174,-2.2822265625,-2.40234375,4.0439453125
0.1745,-1.9619140625,-2.8427734375,4.1240234375
0.175,-1.1611328125,-3.5634765625,4.0439453125
0.1755,-0.3203125,-3.84375,3.5634765625
0.176,0.3603515625,-4.244140625,3.2431640625
0.1765,1.4814453125,-4.6044921875,2.482421875
0.177,2.40234375,-4.8046875,1.76171875
0.1775,2.9228515625,-4.64453125,1.0810546875
0.178,3.5234375,-4.5244140625,0.4404296875
0.1785,3.68359375,-3.84375,-0.400390625
0.179,4.083984375,-3.68359375,-1.0009765625
0.1795,4.2041015625,-2.642578125,-2.1220703125
0.18,4.2841796875,-2.2021484375,-2.642578125
0.1805,4.083984375,-1.28125,-3.3232421875
0.181,3.763671875,-0.4404296875,-3.84375
0.1815,3.0029296875,0.6005859375,-4.0439453125
0.182,2.5625,1.4013671875,-4.4443359375
0.1825,1.6015625,2.5625,-4.6044921875
0.183,1.12109375,2.962890625,-4.4443359375
0.1835,0.2001953125,3.68359375,-4.244140625
0.184,-0.720703125,3.923828125,-3.5634765625
0.1845,-1.4814453125,4.244140625,-3.203125
0.185,-2.72265625,4.484375,-2.2021484375
0.1855,-3.6435546875,4.564453125,-1.44140625
0.186,-4.083984375,4.1640625,-0.560546875
0.1865,-4.64453125,4.00390625,0.2001953125
0.187,-4.64453125,3.1630859375,1.041015625
0.1875,-4.96484375,2.8427734375,1.6416015625
0.188,-5.0849609375,1.681640625,2.8828125
0.1885,-4.884765625,1.0810546875,3.3232421875
0.189,-4.564453125,0.080078125,3.923828125
0.1895,-4.0439453125,-0.8408203125,4.32421875
0.19,-3.283203125,-1.76171875,4.484375
0.1905,-2.642578125,-2.6826171875,4.6845703125
0.191,-1.681640625,-3.84375,4.8046875
0.1915,-0.9208984375,-4.083984375,4.32421875
0.192,-0.080078125,-4.7646484375,4.1640625
0.1925,0.8408203125,-4.884765625,3.3232421875
0.193,1.6015625,-5.1650390625,2.8828125
0.1935,3.0029296875,-5.365234375,1.7216796875
0.194,3.7236328125,-5.28515625,0.9609375
0.1945,4.1240234375,-4.724609375,0.0
0.195,4.6044921875,-4.5244140625,-0.640625
0.1955,4.564453125,-3.603515625,-1.521484375
0.196,4.8046875,-3.1630859375,-2.2021484375
0.1965,4.96484375,-2.001953125,-3.4833984375
0.197,4.5244140625,-1.28125,-3.8037109375
0.1975,4.1640625,-0.240234375,-4.4443359375
0.198,3.4833984375,0.80078125,-4.6845703125
0.1985,2.7626953125,1.7216796875,-4.8447265625
0.199,1.921875,2.72265625,-5.0048828125
0.1995,1.041015625,3.763671875,-5.1650390625
0.2,0.0400390625,3.9638671875,-4.3642578125
0.2005,-0.7607421875,4.6044921875,-4.2841796875
0.201,-1.8017578125,4.6044921875,-3.283203125
0.2015,-2.5625,4.884765625,-2.7626953125
0.202,-3.9638671875,5.0849609375,-1.521484375
0.2025,-4.64453125,4.8447265625,-0.6806640625
0.203,-4.96484375,4.1240234375,0.3603515625
0.2035,-5.4052734375,3.8837890625,1.0009765625
0.204,-5.28515625,2.8427734375,1.921875
0.2045,-5.4052734375,2.2421875,2.6826171875
0.205,-5.60546875,1.201171875,3.8837890625
0.2055,-4.884765625,0.240234375,4.1240234375
0.206,-4.5244140625,-0.7607421875,4.724609375
0.2065,-3.7236328125,-1.76171875,4.8447265625
0.207,-3.0029296875,-2.6025390625,4.96484375
0.2075,-2.0419921875,-3.6435546875,5.044921875
0.208,-1.1611328125,-4.564453125,5.044921875
0.2085,0.0,-4.8046875,4.1240234375
0.209,0.6005859375,-5.365234375,4.0439453125
0.2095,1.76171875,-5.28515625,2.8828125
0.21,2.482421875,-5.4853515625,2.40234375
0.2105,3.8037109375,-5.60546875,1.201171875
0.211,4.2841796875,-5.205078125,0.3603515625
0.2115,4.6044921875,-4.6044921875,-0.6005859375
0.212,4.884765625,-4.2041015625,-1.28125
0.2125,4.884765625,-3.283203125,-2.2021484375
0.213,4.9248046875,-2.6025390625,-2.8828125
0.2135,5.0849609375,-1.6015625,-4.00390625
0.214,4.2041015625,-0.560546875,-4.2041015625
0.2145,4.00390625,0.3203125,-4.8447265625
0.215,3.0029296875,1.44140625,-4.8447265625
0.2155,2.4423828125,2.2421875,-5.0849609375
0.216,1.44140625,3.283203125,-5.0849609375
0.2165,0.6005859375,4.00390625,-5.0048828125
0.217,-0.5205078125,4.2041015625,-4.1240234375
0.2175,-1.1611328125,4.8046875,-4.00390625
0.218,-2.4423828125,4.8447265625,-2.72265625
0.2185,-3.0830078125,4.96484375,-2.2822265625
0.219,-4.3642578125,5.044921875,-1.12109375
0.2195,-4.724609375,4.484375,-0.2001953125
0.22,-5.0849609375,3.9638671875,0.640625
0.2205,-5.2451171875,3.36328125,1.4013671875
0.221,-5.28515625,2.5224609375,2.322265625
0.2215,-5.28515625,1.76171875,3.04296875
0.222,-5.4052734375,0.880859375,4.00390625
0.2225,-4.404296875,-0.2802734375,4.1240234375
0.223,-4.2841796875,-1.041015625,4.7646484375
0.2235,-3.1630859375,-2.2021484375,4.724609375
0.224,-2.642578125,-2.8828125,4.884765625
0.2245,-1.6416015625,-3.8837890625,4.8447265625
0.225,-0.80078125,-4.5244140625,4.5244140625
0.2255,0.16015625,-4.6845703125,3.84375
0.226,0.880859375,-5.125,3.5634765625
0.2265,2.08203125,-5.1650390625,2.4423828125
0.227,2.6826171875,-5.28515625,1.921875
0.2275,3.8037109375,-5.3251953125,0.9208984375
0.228,3.9638671875,-4.64453125,0.080078125
0.2285,4.4443359375,-4.404296875,-0.640625
0.229,4.5244140625,-3.603515625,-1.4814453125
