wavelength,x,y,z
0.0,4.854736328125,-20.570068359375,15.665283203125
0.0005,8.137939453125,-21.611083984375,13.743408203125
0.001,10.940673828125,-21.490966796875,11.060791015625
0.0015,14.544189453125,-20.489990234375,6.696533203125
0.002,17.346923828125,-19.088623046875,2.612548828125
0.0025,19.909423828125,-16.926513671875,-2.192138671875
0.003,21.070556640625,-15.004638671875,-5.275146484375
0.0035,21.270751953125,-12.121826171875,-8.157958984375
0.004,21.270751953125,-9.439208984375,-11.040771484375
0.0045,20.189697265625,-4.474365234375,-14.884521484375
0.005,18.427978515625,0.090087890625,-17.647216796875
0.0055,16.626220703125,3.653564453125,-19.408935546875
0.006,14.664306640625,6.896728515625,-20.970458984375
0.0065,11.501220703125,9.739501953125,-20.570068359375
0.007,7.297119140625,13.302978515625,-20.049560546875
0.0075,2.692626953125,16.506103515625,-18.848388671875
0.008,-2.632568359375,19.108642578125,-16.486083984375
0.0085,-5.675537109375,20.269775390625,-14.844482421875
0.009,-8.518310546875,20.910400390625,-12.682373046875
0.0095,-11.240966796875,20.990478515625,-10.239990234375
0.01,-14.964599609375,19.549072265625,-5.355224609375
0.0105,-17.647216796875,17.787353515625,-1.031005859375
0.011,-19.609130859375,15.865478515625,2.852783203125
0.0115,-20.770263671875,13.903564453125,5.855712890625
0.012,-20.489990234375,10.900634765625,8.618408203125
0.0125,-20.409912109375,7.497314453125,11.861572265625
0.013,-19.208740234375,3.213134765625,15.224853515625
0.0135,-17.447021484375,-1.271240234375,17.947509765625
0.014,-15.645263671875,-4.514404296875,19.268798828125
0.0145,-13.603271484375,-7.437255859375,20.309814453125
0.015,-10.760498046875,-10.239990234375,20.269775390625
0.0155,-5.715576171875,-14.083740234375,19.068603515625
0.016,-1.071044921875,-16.766357421875,17.547119140625
0.0165,3.253173828125,-18.928466796875,15.665283203125
0.017,6.216064453125,-20.009521484375,14.063720703125
0.0175,8.978759765625,-20.209716796875,11.501220703125
0.018,11.621337890625,-20.169677734375,9.018798828125
0.0185,15.104736328125,-18.768310546875,4.374267578125
0.019,17.747314453125,-16.726318359375,-0.350341796875
0.0195,19.228759765625,-15.084716796875,-3.353271484375
0.02,19.989501953125,-12.922607421875,-6.115966796875
0.0205,19.829345703125,-10.320068359375,-8.718505859375
0.021,19.188720703125,-6.156005859375,-12.362060546875
0.0215,18.187744140625,-2.232177734375,-15.084716796875
0.022,16.506103515625,1.931884765625,-17.687255859375
0.0225,14.704345703125,4.934814453125,-18.928466796875
0.023,12.302001953125,7.697509765625,-19.368896484375
0.0235,9.419189453125,10.620361328125,-19.609130859375
0.024,4.214111328125,14.343994140625,-18.287841796875
0.0245,-0.590576171875,16.986572265625,-16.365966796875
0.025,-3.913818359375,18.668212890625,-14.924560546875
0.0255,-6.716552734375,19.789306640625,-13.242919921875
0.026,-9.399169921875,19.709228515625,-10.840576171875
0.0265,-12.482177734375,19.228759765625,-7.397216796875
0.027,-15.485107421875,17.947509765625,-3.353271484375
0.0275,-18.007568359375,15.865478515625,1.251220703125
0.028,-19.088623046875,14.263916015625,3.973876953125
0.0285,-19.569091796875,11.981689453125,6.776611328125
0.029,-19.609130859375,9.178955078125,9.459228515625
0.0295,-18.728271484375,4.654541015625,13.222900390625
0.03,-17.366943359375,0.610595703125,15.945556640625
0.0305,-15.965576171875,-3.032958984375,18.027587890625
0.031,-14.203857421875,-5.835693359375,19.268798828125
0.0315,-11.521240234375,-8.598388671875,19.268798828125
0.032,-7.957763671875,-11.841552734375,19.228759765625
0.0325,-2.912841796875,-15.204833984375,17.827392578125
0.033,1.931884765625,-17.687255859375,15.705322265625
0.0335,4.654541015625,-19.008544921875,14.384033203125
0.034,7.497314453125,-19.889404296875,12.622314453125
0.0345,10.219970703125,-19.809326171875,10.059814453125
0.035,13.623291015625,-18.848388671875,5.735595703125
0.0355,16.385986328125,-17.447021484375,1.611572265625
0.036,18.668212890625,-15.445068359375,-2.392333984375
0.0365,19.428955078125,-13.643310546875,-4.954833984375
0.037,19.709228515625,-11.240966796875,-7.877685546875
0.0375,19.549072265625,-7.877685546875,-10.920654296875
0.038,18.548095703125,-3.553466796875,-14.283935546875
0.0385,16.786376953125,0.850830078125,-16.926513671875
0.039,15.264892578125,3.973876953125,-18.528076171875
0.0395,13.262939453125,6.976806640625,-19.569091796875
0.04,10.139892578125,9.899658203125,-19.368896484375
0.0405,5.735595703125,13.383056640625,-18.728271484375
0.041,1.171142578125,16.506103515625,-17.246826171875
0.0415,-3.353271484375,18.628173828125,-15.284912109375
0.042,-5.915771484375,19.509033203125,-13.803466796875
0.0425,-8.838623046875,19.989501953125,-11.641357421875
0.043,-11.681396484375,19.789306640625,-8.718505859375
0.0435,-14.764404296875,18.427978515625,-4.234130859375
0.044,-17.567138671875,16.466064453125,0.170166015625
0.0445,-19.248779296875,14.744384765625,3.653564453125
0.045,-19.889404296875,12.582275390625,6.456298828125
0.0455,-19.889404296875,9.699462890625,9.259033203125
0.046,-19.368896484375,5.855712890625,12.622314453125
0.0465,-18.207763671875,1.651611328125,15.665283203125
0.047,-16.365966796875,-2.592529296875,18.067626953125
0.0475,-14.604248046875,-5.435302734375,19.148681640625
0.048,-12.402099609375,-8.197998046875,19.909423828125
0.0485,-8.838623046875,-11.240966796875,19.549072265625
0.049,-4.154052734375,-14.724365234375,18.227783203125
0.0495,0.610595703125,-17.326904296875,16.506103515625
0.05,4.374267578125,-19.168701171875,14.784423828125
0.0505,6.936767578125,-19.729248046875,12.942626953125
0.051,9.739501953125,-19.929443359375,10.620361328125
0.0515,12.862548828125,-19.288818359375,7.096923828125
0.052,15.825439453125,-17.807373046875,2.852783203125
0.0525,18.147705078125,-15.885498046875,-1.631591796875
0.053,19.428955078125,-14.123779296875,-4.514404296875
0.0535,19.869384765625,-11.841552734375,-7.277099609375
0.054,19.709228515625,-8.758544921875,-10.199951171875
0.0545,18.748291015625,-4.714599609375,-13.403076171875
0.055,17.427001953125,-0.630615234375,-16.165771484375
0.0555,15.705322265625,3.253173828125,-18.287841796875
0.056,13.783447265625,6.015869140625,-19.088623046875
0.0565,11.341064453125,8.858642578125,-19.368896484375
0.057,7.337158203125,12.221923828125,-19.248779296875
0.0575,2.612548828125,15.344970703125,-17.647216796875
0.058,-1.951904296875,17.627197265625,-15.685302734375
0.0585,-4.994873046875,19.188720703125,-14.364013671875
0.059,-7.677490234375,19.629150390625,-12.442138671875
0.0595,-10.400146484375,19.509033203125,-9.879638671875
0.06,-13.523193359375,18.748291015625,-6.075927734375
0.0605,-16.406005859375,17.106689453125,-1.631591796875
0.061,-18.528076171875,15.104736328125,2.572509765625
0.0615,-19.248779296875,13.302978515625,5.094970703125
0.062,-19.729248046875,10.860595703125,7.937744140625
0.0625,-19.368896484375,7.257080078125,11.220947265625
0.063,-18.327880859375,3.213134765625,14.183837890625
0.0635,-16.726318359375,-0.990966796875,16.786376953125
0.064,-15.405029296875,-4.354248046875,18.748291015625
0.0645,-13.122802734375,-6.796630859375,19.268798828125
0.065,-10.480224609375,-9.639404296875,19.468994140625
0.0655,-6.156005859375,-13.122802734375,18.748291015625
0.066,-1.271240234375,-16.165771484375,17.066650390625
0.0665,2.932861328125,-18.207763671875,15.224853515625
0.067,5.655517578125,-19.328857421875,13.823486328125
0.0675,8.538330078125,-19.729248046875,11.661376953125
0.068,11.461181640625,-19.328857421875,8.618408203125
0.0685,14.384033203125,-18.407958984375,4.614501953125
0.069,17.186767578125,-16.566162109375,0.130126953125
0.0695,19.068603515625,-14.844482421875,-3.513427734375
0.07,19.509033203125,-12.682373046875,-6.075927734375
0.0705,19.789306640625,-10.199951171875,-8.918701171875
0.071,19.228759765625,-6.075927734375,-12.322021484375
0.0715,18.067626953125,-2.072021484375,-15.405029296875
0.072,16.145751953125,1.931884765625,-17.567138671875
0.0725,14.744384765625,5.094970703125,-19.288818359375
0.073,12.261962890625,7.897705078125,-19.609130859375
0.0735,8.818603515625,11.060791015625,-19.368896484375
0.074,4.494384765625,14.263916015625,-18.447998046875
0.0745,-0.590576171875,17.266845703125,-16.406005859375
0.075,-4.354248046875,18.988525390625,-14.804443359375
0.0755,-6.916748046875,19.709228515625,-13.122802734375
0.076,-9.719482421875,20.109619140625,-11.080810546875
0.0765,-13.122802734375,19.388916015625,-6.996826171875
0.077,-15.885498046875,17.947509765625,-2.872802734375
0.0775,-18.327880859375,15.985595703125,1.491455078125
0.078,-19.969482421875,14.263916015625,4.814697265625
0.0785,-20.089599609375,11.661376953125,7.497314453125
0.079,-20.209716796875,8.618408203125,10.580322265625
0.0795,-19.288818359375,4.414306640625,14.023681640625
0.08,-17.847412109375,-0.150146484375,16.946533203125
0.0805,-15.965576171875,-3.833740234375,18.908447265625
0.081,-14.203857421875,-6.596435546875,19.949462890625
0.0815,-11.681396484375,-9.439208984375,20.349853515625
0.082,-7.156982421875,-13.122802734375,19.669189453125
0.0825,-2.712646484375,-15.925537109375,18.267822265625
0.083,2.172119140625,-18.528076171875,16.225830078125
0.0835,5.655517578125,-20.289794921875,14.584228515625
0.084,8.378173828125,-20.369873046875,12.221923828125
0.0845,11.140869140625,-20.650146484375,10.019775390625
0.085,14.784423828125,-19.569091796875,5.375244140625
0.0855,17.627197265625,-17.687255859375,0.850830078125
0.086,19.589111328125,-15.765380859375,-3.072998046875
0.0865,20.790283203125,-13.923583984375,-6.115966796875
0.087,20.790283203125,-11.160888671875,-8.998779296875
0.0875,20.469970703125,-7.237060546875,-12.562255859375
0.088,19.348876953125,-3.193115234375,-15.244873046875
0.0885,17.627197265625,1.371337890625,-18.207763671875
0.089,15.665283203125,5.014892578125,-19.929443359375
0.0895,13.142822265625,7.817626953125,-20.249755859375
0.09,10.580322265625,10.700439453125,-20.650146484375
0.0905,5.255126953125,14.704345703125,-19.368896484375
0.091,0.530517578125,17.427001953125,-17.687255859375
0.0915,-3.793701171875,19.388916015625,-15.885498046875
0.092,-6.996826171875,20.830322265625,-14.323974609375
0.0925,-9.759521484375,20.790283203125,-11.521240234375
0.093,-12.682373046875,20.550048828125,-8.598388671875
0.0935,-16.005615234375,19.348876953125,-4.154052734375
0.094,-18.888427734375,17.106689453125,0.930908203125
0.0945,-20.449951171875,15.104736328125,4.414306640625
0.095,-21.090576171875,12.822509765625,7.257080078125
0.0955,-21.170654296875,10.099853515625,10.099853515625
0.096,-20.409912109375,5.335205078125,14.103759765625
0.0965,-18.968505859375,1.331298828125,16.706298828125
0.097,-17.166748046875,-2.912841796875,19.148681640625
0.0975,-15.405029296875,-6.276123046875,20.830322265625
0.098,-12.362060546875,-9.038818359375,20.670166015625
0.0985,-9.399169921875,-12.081787109375,20.790283203125
0.099,-4.114013671875,-15.845458984375,19.428955078125
0.0995,1.291259765625,-18.648193359375,17.146728515625
0.1,4.854736328125,-20.129638671875,15.385009765625
0.1005,7.937744140625,-21.210693359375,13.543212890625
0.101,10.820556640625,-21.170654296875,10.860595703125
0.1015,14.223876953125,-20.369873046875,6.776611328125
0.102,17.146728515625,-19.008544921875,2.612548828125
0.1025,19.789306640625,-16.846435546875,-2.192138671875
0.103,21.110595703125,-14.844482421875,-5.355224609375
0.1035,21.270751953125,-12.161865234375,-8.358154296875
0.104,21.350830078125,-9.279052734375,-11.240966796875
0.1045,20.349853515625,-4.314208984375,-15.204833984375
0.105,18.548095703125,0.210205078125,-17.927490234375
0.1055,16.626220703125,3.933837890625,-19.769287109375
0.106,14.744384765625,7.217041015625,-21.210693359375
0.1065,11.381103515625,10.219970703125,-21.010498046875
0.107,7.217041015625,13.783447265625,-20.489990234375
0.1075,2.492431640625,16.946533203125,-19.248779296875
0.108,-2.992919921875,19.709228515625,-16.726318359375
0.1085,-6.276123046875,20.950439453125,-14.884521484375
0.109,-9.279052734375,21.510986328125,-12.682373046875
0.1095,-12.041748046875,21.551025390625,-10.159912109375
0.11,-15.845458984375,20.109619140625,-5.114990234375
0.1105,-18.568115234375,18.227783203125,-0.590576171875
0.111,-20.690185546875,16.145751953125,3.533447265625
0.1115,-21.771240234375,14.023681640625,6.736572265625
0.112,-21.571044921875,10.860595703125,9.739501953125
0.1125,-21.370849609375,7.377197265625,13.062744140625
0.113,-20.169677734375,2.692626953125,16.506103515625
0.1135,-18.087646484375,-2.192138671875,19.268798828125
0.114,-16.045654296875,-5.515380859375,20.670166015625
0.1145,-13.883544921875,-8.558349609375,21.631103515625
0.115,-10.600341796875,-11.521240234375,21.430908203125
0.1155,-5.395263671875,-15.364990234375,20.229736328125
0.116,-0.590576171875,-18.207763671875,18.508056640625
0.1165,4.294189453125,-20.489990234375,16.225830078125
0.117,7.377197265625,-21.531005859375,14.343994140625
0.1175,10.500244140625,-21.571044921875,11.501220703125
0.118,13.302978515625,-21.450927734375,8.778564453125
0.1185,16.906494140625,-19.889404296875,3.653564453125
0.119,19.669189453125,-17.567138671875,-1.311279296875
0.1195,21.190673828125,-15.645263671875,-4.674560546875
0.12,21.951416015625,-13.282958984375,-7.837646484375
0.1205,21.671142578125,-10.079833984375,-10.760498046875
0.121,20.950439453125,-5.755615234375,-14.404052734375
0.1215,19.589111328125,-1.511474609375,-17.286865234375
0.122,17.547119140625,3.173095703125,-19.889404296875
0.1225,15.304931640625,6.456298828125,-21.010498046875
0.123,12.542236328125,9.539306640625,-21.450927734375
0.1235,9.259033203125,12.662353515625,-21.330810546875
0.124,3.613525390625,16.506103515625,-19.769287109375
0.1245,-1.511474609375,19.228759765625,-17.607177734375
0.125,-5.395263671875,20.990478515625,-15.765380859375
0.1255,-8.478271484375,21.871337890625,-13.803466796875
0.126,-11.641357421875,21.671142578125,-10.600341796875
0.1265,-14.724365234375,21.070556640625,-7.156982421875
0.127,-17.967529296875,19.388916015625,-2.472412109375
0.1275,-20.650146484375,16.866455078125,2.772705078125
0.128,-21.731201171875,14.864501953125,5.895751953125
0.1285,-22.211669921875,12.181884765625,9.018798828125
0.129,-21.931396484375,8.778564453125,12.181884765625
0.1295,-20.810302734375,3.853759765625,15.945556640625
0.13,-19.088623046875,-0.590576171875,18.708251953125
0.1305,-17.166748046875,-4.754638671875,20.990478515625
0.131,-14.884521484375,-7.837646484375,21.831298828125
0.1315,-11.561279296875,-10.920654296875,21.791259765625
0.132,-7.717529296875,-14.404052734375,21.470947265625
0.1325,-2.072021484375,-17.887451171875,19.589111328125
0.133,3.253173828125,-20.449951171875,17.026611328125
0.1335,6.576416015625,-21.731201171875,15.304931640625
0.134,9.739501953125,-22.411865234375,13.022705078125
0.1345,12.942626953125,-22.051513671875,9.659423828125
0.135,16.345947265625,-20.890380859375,5.255126953125
0.1355,19.388916015625,-19.088623046875,0.490478515625
0.136,21.791259765625,-16.646240234375,-4.354248046875
0.1365,22.431884765625,-14.283935546875,-7.237060546875
0.137,22.632080078125,-11.240966796875,-10.520263671875
0.1375,22.151611328125,-7.437255859375,-13.883544921875
0.138,20.790283203125,-2.592529296875,-17.326904296875
0.1385,18.548095703125,2.252197265625,-19.889404296875
0.139,16.586181640625,5.895751953125,-21.731201171875
0.1395,13.943603515625,9.098876953125,-22.371826171875
0.14,10.219970703125,12.422119140625,-21.971435546875
0.1405,5.575439453125,15.985595703125,-21.130615234375
0.141,0.170166015625,19.268798828125,-19.208740234375
0.1415,-4.994873046875,21.470947265625,-16.646240234375
0.142,-7.957763671875,22.351806640625,-14.724365234375
0.1425,-11.160888671875,22.752197265625,-12.201904296875
0.143,-14.444091796875,22.111572265625,-8.478271484375
0.1435,-17.767333984375,20.469970703125,-3.673583984375
0.144,-20.570068359375,18.267822265625,1.411376953125
0.1445,-22.572021484375,15.985595703125,5.575439453125
0.145,-22.892333984375,13.302978515625,8.578369140625
0.1455,-22.852294921875,9.899658203125,11.981689453125
0.146,-22.091552734375,5.535400390625,15.545166015625
0.1465,-20.489990234375,0.770751953125,18.828369140625
0.147,-18.087646484375,-4.033935546875,21.150634765625
0.1475,-16.005615234375,-7.317138671875,22.431884765625
0.148,-13.242919921875,-10.560302734375,22.952392578125
0.1485,-8.998779296875,-13.963623046875,22.311767578125
0.149,-3.953857421875,-17.366943359375,20.790283203125
0.1495,1.611572265625,-20.409912109375,18.588134765625
0.15,6.216064453125,-22.411865234375,16.265869140625
0.1505,9.138916015625,-22.852294921875,13.943603515625
0.151,12.422119140625,-23.092529296875,11.140869140625
0.1515,16.025634765625,-22.131591796875,6.896728515625
0.152,19.188720703125,-20.289794921875,1.931884765625
0.1525,21.751220703125,-17.807373046875,-3.072998046875
0.153,23.312744140625,-15.685302734375,-6.756591796875
0.1535,23.432861328125,-12.642333984375,-9.879638671875
0.154,23.152587890625,-8.798583984375,-13.483154296875
0.1545,21.991455078125,-4.234130859375,-16.886474609375
0.155,20.189697265625,0.730712890625,-20.009521484375
0.1555,17.747314453125,5.255126953125,-22.131591796875
0.156,15.224853515625,8.378173828125,-22.852294921875
0.1565,12.181884765625,11.741455078125,-23.252685546875
0.157,7.056884765625,15.745361328125,-22.291748046875
0.1575,1.931884765625,18.868408203125,-20.489990234375
0.158,-3.473388671875,21.470947265625,-18.047607421875
0.1585,-7.517333984375,23.192626953125,-15.965576171875
0.159,-10.560302734375,23.192626953125,-13.202880859375
0.1595,-13.763427734375,23.192626953125,-10.159912109375
0.16,-17.487060546875,21.911376953125,-5.395263671875
0.1605,-20.610107421875,19.709228515625,0.010009765625
0.161,-22.772216796875,17.146728515625,4.654541015625
0.1615,-23.773193359375,14.744384765625,8.017822265625
0.162,-23.893310546875,11.461181640625,11.381103515625
0.1625,-23.292724609375,6.896728515625,15.385009765625
0.163,-21.771240234375,2.412353515625,18.387939453125
0.1635,-19.729248046875,-2.672607421875,21.390869140625
0.164,-17.366943359375,-6.916748046875,23.312744140625
0.1645,-14.323974609375,-9.959716796875,23.392822265625
0.165,-11.240966796875,-13.162841796875,23.673095703125
0.1655,-5.595458984375,-17.326904296875,22.351806640625
0.166,0.090087890625,-20.369873046875,20.029541015625
0.1665,4.974853515625,-22.491943359375,17.547119140625
0.167,8.618408203125,-23.853271484375,15.465087890625
0.1675,11.901611328125,-23.693115234375,12.302001953125
0.168,15.224853515625,-23.132568359375,8.618408203125
0.1685,18.708251953125,-21.651123046875,3.813720703125
0.169,21.871337890625,-19.128662109375,-1.871826171875
0.1695,23.633056640625,-16.646240234375,-6.075927734375
0.17,24.033447265625,-13.803466796875,-9.279052734375
0.1705,24.113525390625,-10.560302734375,-12.562255859375
0.171,23.072509765625,-5.395263671875,-16.806396484375
0.1715,21.270751953125,-0.830810546875,-19.569091796875
0.172,18.948486328125,3.893798828125,-21.971435546875
0.1725,16.666259765625,7.897705078125,-23.773193359375
0.173,13.022705078125,11.100830078125,-23.412841796875
0.1735,9.419189453125,14.464111328125,-23.292724609375
0.174,3.853759765625,18.387939453125,-21.811279296875
0.1745,-2.192138671875,21.430908203125,-19.208740234375
0.175,-6.396240234375,22.992431640625,-16.806396484375
0.1755,-9.759521484375,23.913330078125,-14.604248046875
0.176,-13.042724609375,23.793212890625,-11.481201171875
0.1765,-16.646240234375,22.592041015625,-6.796630859375
0.177,-19.689208984375,20.830322265625,-2.192138671875
0.1775,-22.451904296875,18.227783203125,3.213134765625
0.178,-23.933349609375,15.785400390625,7.056884765625
0.1785,-23.773193359375,12.502197265625,10.219970703125
0.179,-23.773193359375,9.178955078125,13.583251953125
0.1795,-22.451904296875,3.813720703125,17.667236328125
0.18,-20.489990234375,-1.151123046875,20.550048828125
0.1805,-18.087646484375,-5.275146484375,22.391845703125
0.181,-15.965576171875,-8.758544921875,23.793212890625
