wavelength,x,y,z
0.0,-17.567138671875,16.506103515625,0.330322265625
0.0005,-18.968505859375,14.824462890625,3.293212890625
0.001,-19.489013671875,12.382080078125,6.216064453125
0.0015,-18.928466796875,8.858642578125,9.138916015625
0.002,-18.367919921875,5.014892578125,12.502197265625
0.0025,-17.847412109375,1.611572265625,15.304931640625
0.003,-16.526123046875,-2.112060546875,17.667236328125
0.0035,-14.684326171875,-5.114990234375,18.908447265625
0.004,-11.721435546875,-7.997802734375,18.908447265625
0.0045,-8.278076171875,-11.120849609375,18.788330078125
0.005,-3.793701171875,-14.564208984375,17.907470703125
0.0055,0.490478515625,-17.006591796875,16.385986328125
0.006,3.653564453125,-18.728271484375,15.144775390625
0.0065,6.536376953125,-19.489013671875,13.142822265625
0.007,9.699462890625,-18.968505859375,9.659423828125
0.0075,12.822509765625,-18.488037109375,6.176025390625
0.008,15.745361328125,-17.807373046875,2.612548828125
0.0085,18.067626953125,-16.085693359375,-1.391357421875
0.009,19.068603515625,-14.323974609375,-4.114013671875
0.0095,19.228759765625,-11.521240234375,-7.076904296875
0.01,18.828369140625,-7.957763671875,-10.119873046875
0.0105,18.307861328125,-4.194091796875,-13.403076171875
0.011,17.306884765625,-0.550537109375,-16.005615234375
0.0115,15.985595703125,2.932861328125,-18.167724609375
0.012,13.943603515625,5.895751953125,-19.128662109375
0.0125,10.380126953125,8.978759765625,-18.768310546875
0.013,6.656494140625,12.302001953125,-18.568115234375
0.0135,2.492431640625,15.545166015625,-17.807373046875
0.014,-1.991943359375,17.947509765625,-16.005615234375
0.0145,-4.874755859375,19.228759765625,-14.604248046875
0.015,-7.877685546875,19.669189453125,-12.201904296875
0.0155,-11.160888671875,19.108642578125,-8.518310546875
0.016,-14.283935546875,18.427978515625,-4.834716796875
0.0165,-17.046630859375,17.306884765625,-1.071044921875
0.017,-19.168701171875,15.505126953125,2.812744140625
0.0175,-19.729248046875,13.302978515625,5.535400390625
0.018,-19.489013671875,9.899658203125,8.738525390625
0.0185,-19.048583984375,6.176025390625,11.981689453125
0.019,-18.568115234375,2.452392578125,15.184814453125
0.0195,-17.046630859375,-1.471435546875,17.627197265625
0.02,-15.525146484375,-4.674560546875,19.268798828125
0.0205,-13.042724609375,-7.637451171875,19.869384765625
0.021,-9.038818359375,-10.880615234375,19.228759765625
0.0215,-4.994873046875,-14.083740234375,18.628173828125
0.022,-0.630615234375,-17.086669921875,17.467041015625
0.0225,3.573486328125,-19.208740234375,15.665283203125
0.023,6.336181640625,-19.889404296875,13.823486328125
0.0235,9.499267578125,-19.929443359375,10.860595703125
0.024,12.862548828125,-19.288818359375,6.976806640625
0.0245,15.865478515625,-18.528076171875,3.213134765625
0.025,18.347900390625,-16.966552734375,-0.830810546875
0.0255,20.069580078125,-15.164794921875,-4.234130859375
0.026,20.189697265625,-12.442138671875,-7.036865234375
0.0265,19.709228515625,-8.598388671875,-10.280029296875
0.027,19.068603515625,-4.914794921875,-13.322998046875
0.0275,18.347900390625,-1.151123046875,-16.365966796875
0.028,16.586181640625,2.852783203125,-18.568115234375
0.0285,14.624267578125,5.775634765625,-19.649169921875
0.029,11.701416015625,8.858642578125,-19.889404296875
0.0295,7.377197265625,12.302001953125,-19.208740234375
0.03,3.293212890625,15.385009765625,-18.407958984375
0.0305,-1.111083984375,17.947509765625,-16.886474609375
0.031,-4.834716796875,19.869384765625,-15.324951171875
0.0315,-7.557373046875,20.149658203125,-12.962646484375
0.032,-10.760498046875,19.829345703125,-9.639404296875
0.0325,-14.083740234375,19.148681640625,-5.795654296875
0.033,-16.966552734375,18.067626953125,-1.951904296875
0.0335,-19.088623046875,16.225830078125,2.052001953125
0.034,-20.209716796875,14.263916015625,5.094970703125
0.0345,-20.209716796875,11.220947265625,8.097900390625
0.035,-19.569091796875,7.096923828125,11.541259765625
0.0355,-18.928466796875,3.533447265625,14.424072265625
0.036,-17.927490234375,-0.350341796875,17.266845703125
0.0365,-16.245849609375,-4.154052734375,19.468994140625
0.037,-13.923583984375,-6.876708984375,19.909423828125
0.0375,-10.680419921875,-9.959716796875,19.909423828125
0.038,-6.236083984375,-13.523193359375,19.268798828125
0.0385,-1.951904296875,-16.526123046875,18.147705078125
0.039,2.292236328125,-18.688232421875,16.385986328125
0.0395,5.575439453125,-20.249755859375,14.904541015625
0.04,8.498291015625,-20.249755859375,12.141845703125
0.0405,11.821533203125,-19.729248046875,8.338134765625
0.041,14.944580078125,-19.168701171875,4.774658203125
0.0415,17.867431640625,-17.807373046875,0.610595703125
0.042,19.869384765625,-15.885498046875,-3.273193359375
0.0425,20.429931640625,-13.563232421875,-6.115966796875
0.043,20.269775390625,-10.239990234375,-9.239013671875
0.0435,19.589111328125,-5.955810546875,-12.802490234375
0.044,18.908447265625,-2.432373046875,-15.685302734375
0.0445,17.467041015625,1.451416015625,-18.087646484375
0.045,15.825439453125,5.054931640625,-20.089599609375
0.0455,12.782470703125,7.977783203125,-20.089599609375
0.046,9.138916015625,11.220947265625,-19.809326171875
0.0465,4.814697265625,14.744384765625,-19.248779296875
0.047,0.210205078125,17.747314453125,-17.887451171875
0.0475,-3.833740234375,19.709228515625,-16.085693359375
0.048,-6.876708984375,20.750244140625,-14.243896484375
0.0485,-10.079833984375,20.590087890625,-11.080810546875
0.049,-13.643310546875,19.789306640625,-6.796630859375
0.0495,-16.566162109375,19.068603515625,-3.353271484375
0.05,-19.248779296875,17.386962890625,1.010986328125
0.0505,-21.010498046875,15.385009765625,4.774658203125
0.051,-21.010498046875,12.422119140625,7.697509765625
0.0515,-20.770263671875,8.738525390625,11.060791015625
0.052,-20.009521484375,4.454345703125,14.624267578125
0.0525,-19.088623046875,0.490478515625,17.627197265625
0.053,-17.286865234375,-3.353271484375,19.709228515625
0.0535,-15.445068359375,-6.716552734375,21.270751953125
0.054,-11.921630859375,-9.879638671875,20.990478515625
0.0545,-7.437255859375,-13.443115234375,20.349853515625
0.055,-3.353271484375,-16.646240234375,19.629150390625
0.0555,1.651611328125,-19.448974609375,17.747314453125
0.056,5.495361328125,-21.130615234375,15.865478515625
0.0565,8.498291015625,-21.531005859375,13.302978515625
0.057,11.861572265625,-21.290771484375,9.939697265625
0.0575,15.665283203125,-20.289794921875,5.175048828125
0.058,18.508056640625,-19.048583984375,1.251220703125
0.0585,20.750244140625,-17.166748046875,-2.872802734375
0.059,22.071533203125,-14.924560546875,-6.356201171875
0.0595,21.591064453125,-11.281005859375,-9.479248046875
0.06,21.110595703125,-7.237060546875,-12.962646484375
0.0605,20.349853515625,-3.273193359375,-16.165771484375
0.061,18.908447265625,1.131103515625,-19.088623046875
0.0615,16.746337890625,4.974853515625,-20.850341796875
0.062,14.343994140625,8.137939453125,-21.651123046875
0.0625,10.540283203125,11.421142578125,-21.330810546875
0.063,5.335205078125,15.344970703125,-20.329833984375
0.0635,1.291259765625,18.147705078125,-19.288818359375
0.064,-3.433349609375,20.590087890625,-17.326904296875
0.0645,-7.076904296875,21.991455078125,-15.364990234375
0.065,-10.199951171875,21.631103515625,-12.041748046875
0.0655,-13.403076171875,21.190673828125,-8.558349609375
0.066,-16.966552734375,20.189697265625,-4.033935546875
0.0665,-19.729248046875,18.387939453125,0.570556640625
0.067,-21.450927734375,16.345947265625,4.214111328125
0.0675,-22.291748046875,13.783447265625,7.537353515625
0.068,-21.611083984375,9.859619140625,10.740478515625
0.0685,-20.890380859375,5.415283203125,14.464111328125
0.069,-20.089599609375,1.771728515625,17.306884765625
0.0695,-18.528076171875,-2.592529296875,19.989501953125
0.07,-16.285888671875,-6.276123046875,21.631103515625
0.0705,-13.162841796875,-9.279052734375,21.631103515625
0.071,-9.559326171875,-12.522216796875,21.430908203125
0.0715,-4.194091796875,-16.446044921875,20.189697265625
0.072,0.450439453125,-19.168701171875,18.588134765625
0.0725,4.454345703125,-21.130615234375,16.746337890625
0.073,7.857666015625,-22.291748046875,14.664306640625
0.0735,11.260986328125,-21.651123046875,10.740478515625
0.074,14.624267578125,-20.890380859375,6.896728515625
0.0745,17.827392578125,-20.009521484375,2.932861328125
0.075,20.550048828125,-17.967529296875,-1.871826171875
0.0755,21.911376953125,-15.885498046875,-5.275146484375
0.076,22.151611328125,-12.802490234375,-8.478271484375
0.0765,21.591064453125,-8.998779296875,-11.681396484375
0.077,20.710205078125,-4.354248046875,-15.485107421875
0.0775,19.589111328125,-0.510498046875,-18.207763671875
0.078,17.867431640625,3.573486328125,-20.530029296875
0.0785,15.625244140625,7.177001953125,-21.931396484375
0.079,11.661376953125,10.380126953125,-21.410888671875
0.0795,7.737548828125,13.783447265625,-21.090576171875
0.08,2.892822265625,17.427001953125,-20.049560546875
0.0805,-2.272216796875,20.069580078125,-17.927490234375
0.081,-5.795654296875,21.631103515625,-16.085693359375
0.0815,-9.118896484375,22.271728515625,-13.683349609375
0.082,-12.642333984375,21.591064453125,-9.639404296875
0.0825,-16.125732421875,20.550048828125,-5.195068359375
0.083,-19.008544921875,19.428955078125,-1.271240234375
0.0835,-21.410888671875,17.306884765625,3.253173828125
0.084,-22.291748046875,14.864501953125,6.536376953125
0.0845,-22.091552734375,11.180908203125,9.899658203125
0.085,-21.490966796875,7.297119140625,13.182861328125
0.0855,-20.650146484375,2.852783203125,16.786376953125
0.086,-19.048583984375,-1.471435546875,19.468994140625
0.0865,-17.166748046875,-5.155029296875,21.310791015625
0.087,-14.764404296875,-8.478271484375,22.431884765625
0.0875,-10.360107421875,-11.881591796875,21.510986328125
0.088,-5.915771484375,-15.405029296875,20.790283203125
0.0885,-1.431396484375,-18.608154296875,19.709228515625
0.089,3.693603515625,-21.050537109375,17.386962890625
0.0895,6.896728515625,-22.091552734375,15.385009765625
0.09,10.219970703125,-22.131591796875,12.342041015625
0.0905,13.663330078125,-21.450927734375,8.378173828125
0.091,17.146728515625,-20.289794921875,3.853759765625
0.0915,19.869384765625,-18.648193359375,-0.510498046875
0.092,21.791259765625,-16.646240234375,-4.434326171875
0.0925,22.351806640625,-13.963623046875,-7.557373046875
0.093,21.631103515625,-9.879638671875,-10.880615234375
0.0935,20.950439453125,-5.915771484375,-14.163818359375
0.094,20.189697265625,-1.871826171875,-17.406982421875
0.0945,18.267822265625,2.612548828125,-19.969482421875
0.095,16.105712890625,6.095947265625,-21.330810546875
0.0955,13.302978515625,9.339111328125,-21.931396484375
0.096,8.938720703125,12.782470703125,-21.170654296875
0.0965,4.134033203125,16.305908203125,-20.209716796875
0.097,-0.310302734375,19.108642578125,-18.848388671875
0.0975,-4.754638671875,21.270751953125,-16.806396484375
0.098,-7.877685546875,21.951416015625,-14.564208984375
0.0985,-11.321044921875,21.631103515625,-10.880615234375
0.099,-14.604248046875,20.950439453125,-7.076904296875
0.0995,-17.887451171875,19.869384765625,-2.792724609375
0.1,-20.449951171875,17.787353515625,1.851806640625
0.1005,-21.851318359375,15.665283203125,5.295166015625
0.101,-22.211669921875,12.702392578125,8.578369140625
0.1015,-21.450927734375,8.378173828125,12.021728515625
0.102,-20.570068359375,4.254150390625,15.344970703125
0.1025,-19.689208984375,0.370361328125,18.267822265625
0.103,-17.807373046875,-3.993896484375,20.750244140625
0.1035,-15.405029296875,-7.156982421875,21.631103515625
0.104,-12.041748046875,-10.400146484375,21.711181640625
0.1045,-7.717529296875,-13.963623046875,21.070556640625
0.105,-2.832763671875,-17.406982421875,19.869384765625
0.1055,1.931884765625,-19.929443359375,17.907470703125
0.106,5.735595703125,-21.691162109375,16.185791015625
0.1065,8.898681640625,-22.091552734375,13.583251953125
0.107,12.462158203125,-21.410888671875,9.459228515625
0.1075,15.745361328125,-20.690185546875,5.615478515625
0.108,18.908447265625,-19.489013671875,1.331298828125
0.1085,21.270751953125,-17.326904296875,-3.193115234375
0.109,22.151611328125,-15.044677734375,-6.356201171875
0.1095,22.151611328125,-11.641357421875,-9.679443359375
0.11,21.430908203125,-7.237060546875,-13.282958984375
0.1105,20.550048828125,-3.193115234375,-16.486083984375
0.111,19.108642578125,0.970947265625,-19.088623046875
0.1115,17.266845703125,5.014892578125,-21.370849609375
0.112,14.424072265625,8.177978515625,-21.851318359375
0.1125,10.420166015625,11.581298828125,-21.490966796875
0.113,6.055908203125,15.184814453125,-20.850341796875
0.1135,1.251220703125,18.468017578125,-19.609130859375
0.114,-3.553466796875,20.790283203125,-17.366943359375
0.1145,-6.916748046875,22.111572265625,-15.565185546875
0.115,-10.239990234375,22.231689453125,-12.562255859375
0.1155,-13.803466796875,21.310791015625,-8.278076171875
0.116,-16.966552734375,20.469970703125,-4.314208984375
0.1165,-19.889404296875,18.868408203125,0.250244140625
0.117,-22.051513671875,16.626220703125,4.494384765625
0.1175,-22.371826171875,13.823486328125,7.537353515625
0.118,-22.091552734375,9.979736328125,11.100830078125
0.1185,-21.290771484375,5.615478515625,14.704345703125
0.119,-20.449951171875,1.571533203125,17.907470703125
0.1195,-18.568115234375,-2.752685546875,20.229736328125
0.12,-16.646240234375,-6.396240234375,22.071533203125
0.1205,-13.483154296875,-9.639404296875,22.271728515625
0.121,-9.078857421875,-13.122802734375,21.470947265625
0.1215,-4.634521484375,-16.486083984375,20.670166015625
0.122,0.370361328125,-19.529052734375,19.068603515625
0.1225,4.854736328125,-21.611083984375,16.866455078125
0.123,7.937744140625,-22.291748046875,14.664306640625
0.1235,11.421142578125,-22.211669921875,11.260986328125
0.124,15.144775390625,-21.210693359375,6.696533203125
0.1245,18.107666015625,-20.209716796875,2.772705078125
0.125,20.790283203125,-18.287841796875,-1.751708984375
0.1255,22.552001953125,-16.125732421875,-5.635498046875
0.126,22.431884765625,-12.842529296875,-8.718505859375
0.1265,21.951416015625,-8.758544921875,-12.362060546875
0.127,21.110595703125,-4.554443359375,-15.685302734375
0.1275,20.069580078125,-0.350341796875,-18.808349609375
0.128,17.907470703125,3.973876953125,-20.930419921875
0.1285,15.705322265625,7.217041015625,-22.131591796875
0.129,12.221923828125,10.540283203125,-22.131591796875
0.1295,7.217041015625,14.384033203125,-21.210693359375
0.13,3.052978515625,17.467041015625,-20.249755859375
0.1305,-1.951904296875,20.229736328125,-18.367919921875
0.131,-6.115966796875,22.151611328125,-16.365966796875
0.1315,-9.118896484375,22.231689453125,-13.603271484375
0.132,-12.602294921875,21.911376953125,-9.999755859375
0.1325,-16.285888671875,20.950439453125,-5.475341796875
0.133,-19.208740234375,19.509033203125,-1.231201171875
0.1335,-21.330810546875,17.427001953125,3.052978515625
0.134,-22.612060546875,15.064697265625,6.576416015625
0.1345,-22.331787109375,11.501220703125,9.859619140625
0.135,-21.651123046875,6.976806640625,13.703369140625
0.1355,-20.810302734375,3.173095703125,16.666259765625
0.136,-19.489013671875,-1.191162109375,19.589111328125
0.1365,-17.326904296875,-5.355224609375,21.631103515625
0.137,-14.644287109375,-8.318115234375,22.031494140625
0.1375,-11.080810546875,-11.641357421875,21.911376953125
0.138,-5.915771484375,-15.525146484375,20.910400390625
0.1385,-1.471435546875,-18.407958984375,19.589111328125
0.139,3.052978515625,-20.610107421875,17.627197265625
0.1395,6.776611328125,-22.251708984375,15.705322265625
0.14,9.939697265625,-21.931396484375,12.422119140625
0.1405,13.423095703125,-21.410888671875,8.498291015625
0.141,16.826416015625,-20.610107421875,4.494384765625
0.1415,19.789306640625,-18.888427734375,-0.190185546875
0.142,21.671142578125,-16.806396484375,-4.114013671875
0.1425,22.271728515625,-14.203857421875,-7.237060546875
0.143,21.951416015625,-10.560302734375,-10.520263671875
0.1435,21.150634765625,-5.835693359375,-14.404052734375
0.144,20.269775390625,-2.192138671875,-17.166748046875
0.1445,18.668212890625,1.971923828125,-19.729248046875
0.145,16.666259765625,5.895751953125,-21.731201171875
0.1455,13.262939453125,9.018798828125,-21.490966796875
0.146,9.619384765625,12.342041015625,-21.330810546875
0.1465,4.614501953125,16.145751953125,-20.449951171875
0.147,-0.230224609375,19.028564453125,-18.728271484375
0.1475,-4.194091796875,20.870361328125,-16.846435546875
0.148,-7.637451171875,22.071533203125,-14.844482421875
0.1485,-10.920654296875,21.631103515625,-11.281005859375
0.149,-14.604248046875,20.750244140625,-6.876708984375
0.1495,-17.487060546875,19.989501953125,-3.233154296875
0.15,-20.169677734375,17.987548828125,1.331298828125
0.1505,-21.811279296875,15.865478515625,5.094970703125
0.151,-21.811279296875,12.742431640625,8.137939453125
0.1515,-21.531005859375,9.058837890625,11.501220703125
0.152,-20.730224609375,4.494384765625,15.264892578125
0.1525,-19.569091796875,0.490478515625,18.067626953125
0.153,-17.807373046875,-3.353271484375,20.149658203125
0.1535,-15.925537109375,-6.876708984375,21.831298828125
0.154,-12.161865234375,-9.999755859375,21.310791015625
0.1545,-7.877685546875,-13.523193359375,20.790283203125
0.155,-3.553466796875,-16.806396484375,19.989501953125
0.1555,1.531494140625,-19.529052734375,17.947509765625
0.156,5.215087890625,-21.170654296875,16.105712890625
0.1565,8.298095703125,-21.651123046875,13.623291015625
0.157,11.661376953125,-21.290771484375,10.179931640625
0.1575,15.425048828125,-20.289794921875,5.455322265625
0.158,18.227783203125,-19.128662109375,1.611572265625
0.1585,20.469970703125,-17.286865234375,-2.432373046875
0.159,21.791259765625,-15.084716796875,-5.875732421875
0.1595,21.310791015625,-11.561279296875,-8.958740234375
0.16,20.950439453125,-7.717529296875,-12.322021484375
0.1605,20.269775390625,-3.793701171875,-15.645263671875
0.161,18.868408203125,0.490478515625,-18.447998046875
0.1615,16.906494140625,4.174072265625,-20.209716796875
0.162,14.664306640625,7.417236328125,-21.290771484375
0.1625,10.860595703125,10.660400390625,-20.890380859375
0.163,5.895751953125,14.504150390625,-20.009521484375
0.1635,1.971923828125,17.346923828125,-19.168701171875
0.164,-2.712646484375,19.829345703125,-17.206787109375
0.1645,-6.236083984375,21.270751953125,-15.405029296875
0.165,-9.359130859375,21.110595703125,-12.281982421875
0.1655,-12.562255859375,20.790283203125,-8.878662109375
0.166,-16.125732421875,19.869384765625,-4.514404296875
0.1665,-18.848388671875,18.187744140625,-0.150146484375
0.167,-20.570068359375,16.345947265625,3.373291015625
0.1675,-21.490966796875,13.943603515625,6.656494140625
0.168,-20.890380859375,10.179931640625,9.779541015625
0.1685,-20.289794921875,5.895751953125,13.423095703125
0.169,-19.689208984375,2.292236328125,16.345947265625
0.1695,-18.207763671875,-1.871826171875,19.028564453125
0.17,-16.165771484375,-5.395263671875,20.590087890625
0.1705,-13.322998046875,-8.358154296875,20.830322265625
0.171,-9.799560546875,-11.521240234375,20.670166015625
0.1715,-4.714599609375,-15.405029296875,19.589111328125
0.172,-0.350341796875,-18.007568359375,18.187744140625
0.1725,3.573486328125,-20.009521484375,16.506103515625
0.173,6.896728515625,-21.170654296875,14.544189453125
0.1735,10.219970703125,-20.650146484375,10.860595703125
0.174,13.503173828125,-20.129638671875,7.177001953125
0.1745,16.666259765625,-19.368896484375,3.413330078125
0.175,19.268798828125,-17.487060546875,-1.111083984375
0.1755,20.630126953125,-15.645263671875,-4.314208984375
0.176,21.030517578125,-12.802490234375,-7.397216796875
0.1765,20.510009765625,-9.279052734375,-10.520263671875
0.177,19.869384765625,-4.914794921875,-14.123779296875
0.1775,18.948486328125,-1.271240234375,-16.846435546875
0.178,17.427001953125,2.612548828125,-19.168701171875
0.1785,15.385009765625,6.055908203125,-20.610107421875
0.179,11.781494140625,9.138916015625,-20.249755859375
0.1795,8.057861328125,12.502197265625,-20.049560546875
0.18,3.493408203125,16.065673828125,-19.248779296875
0.1805,-1.311279296875,18.628173828125,-17.326904296875
0.181,-4.634521484375,20.229736328125,-15.845458984375
