wavelength,x,y,z
0.0,-5.0849609375,-2.5625,6.1259765625
0.0005,-5.8857421875,-1.6015625,6.40625
0.001,-6.0458984375,-1.0009765625,6.326171875
0.0015,-5.8056640625,-0.2802734375,5.7255859375
0.002,-5.4453125,0.880859375,4.5244140625
0.0025,-5.1650390625,2.2421875,3.1630859375
0.003,-5.0849609375,3.5634765625,1.9619140625
0.0035,-5.0849609375,4.484375,1.28125
0.004,-4.64453125,4.8447265625,0.6005859375
0.0045,-3.7236328125,4.96484375,-0.3603515625
0.005,-2.40234375,5.044921875,-1.7216796875
0.0055,-1.041015625,5.1650390625,-3.203125
0.006,-0.2802734375,5.5654296875,-4.4443359375
0.0065,0.3603515625,5.8056640625,-5.2451171875
0.007,1.12109375,5.4052734375,-5.685546875
0.0075,2.2421875,4.32421875,-5.92578125
0.008,3.4833984375,2.962890625,-5.9658203125
0.0085,4.6845703125,1.681640625,-6.2861328125
0.009,5.2451171875,0.9609375,-6.486328125
0.0095,5.365234375,0.48046875,-6.326171875
0.01,5.1650390625,-0.3603515625,-5.7255859375
0.0105,4.8447265625,-1.4814453125,-4.5244140625
0.011,4.724609375,-2.8427734375,-3.203125
0.0115,4.724609375,-4.1240234375,-2.2421875
0.012,4.724609375,-4.9248046875,-1.6015625
0.0125,4.2041015625,-5.28515625,-0.9208984375
0.013,3.203125,-5.4453125,0.240234375
0.0135,1.921875,-5.6455078125,1.6015625
0.014,0.720703125,-5.845703125,3.0830078125
0.0145,0.1201171875,-6.3662109375,4.1640625
0.015,-0.640625,-6.486328125,4.96484375
0.0155,-1.44140625,-5.9658203125,5.4052734375
0.016,-2.72265625,-4.8046875,5.7255859375
0.0165,-4.00390625,-3.5234375,5.8857421875
0.017,-5.0849609375,-2.40234375,6.1259765625
0.0175,-5.525390625,-1.8017578125,6.326171875
0.018,-5.525390625,-1.1611328125,6.005859375
0.0185,-5.3251953125,-0.3203125,5.1650390625
0.019,-5.125,1.0009765625,4.0439453125
0.0195,-5.044921875,2.3623046875,2.8427734375
0.02,-5.125,3.5234375,2.0419921875
0.0205,-4.96484375,4.1240234375,1.4013671875
0.021,-4.404296875,4.484375,0.6806640625
0.0215,-3.2431640625,4.6044921875,-0.640625
0.022,-2.001953125,4.8447265625,-2.0419921875
0.0225,-1.0009765625,5.2451171875,-3.4033203125
0.023,-0.5205078125,5.685546875,-4.4443359375
0.0235,0.2802734375,5.60546875,-5.0849609375
0.024,1.28125,4.884765625,-5.4453125
0.0245,2.5625,3.6435546875,-5.7255859375
0.025,3.8037109375,2.3623046875,-5.92578125
0.0255,4.64453125,1.5615234375,-6.24609375
0.026,5.0048828125,1.0009765625,-6.326171875
0.0265,4.96484375,0.3603515625,-5.92578125
0.027,4.7646484375,-0.640625,-5.0048828125
0.0275,4.6044921875,-1.9619140625,-3.84375
0.028,4.6044921875,-3.2431640625,-2.72265625
0.0285,4.724609375,-4.2841796875,-2.08203125
0.029,4.484375,-4.8447265625,-1.4814453125
0.0295,3.763671875,-5.0849609375,-0.640625
0.03,2.5625,-5.3251953125,0.80078125
0.0305,1.3212890625,-5.60546875,2.2421875
0.031,0.6005859375,-6.1259765625,3.4833984375
0.0315,0.0400390625,-6.40625,4.404296875
0.032,-0.80078125,-6.166015625,4.96484375
0.0325,-1.9619140625,-5.3251953125,5.3251953125
0.033,-3.283203125,-4.083984375,5.60546875
0.0335,-4.484375,-2.8427734375,5.8857421875
0.034,-5.205078125,-2.08203125,6.166015625
0.0345,-5.4052734375,-1.5615234375,6.0859375
0.035,-5.28515625,-0.80078125,5.5654296875
0.0355,-5.0849609375,0.400390625,4.484375
0.036,-5.0048828125,1.7216796875,3.3232421875
0.0365,-5.0849609375,3.0029296875,2.3623046875
0.037,-5.0849609375,3.84375,1.76171875
0.0375,-4.64453125,4.244140625,1.0810546875
0.038,-3.7236328125,4.484375,0.0400390625
0.0385,-2.5224609375,4.7646484375,-1.4814453125
0.039,-1.44140625,5.0849609375,-2.8828125
0.0395,-0.7607421875,5.5654296875,-4.00390625
0.04,-0.16015625,5.7255859375,-4.8046875
0.0405,0.80078125,5.1650390625,-5.28515625
0.041,2.08203125,4.0439453125,-5.5654296875
0.0415,3.4033203125,2.802734375,-5.8056640625
0.042,4.484375,1.76171875,-6.1259765625
0.0425,4.96484375,1.201171875,-6.3662109375
0.043,5.0048828125,0.6005859375,-6.0859375
0.0435,4.8046875,-0.3603515625,-5.28515625
0.044,4.64453125,-1.6015625,-4.1240234375
0.0445,4.6044921875,-2.962890625,-3.0029296875
0.045,4.724609375,-4.1640625,-2.162109375
0.0455,4.6044921875,-4.8046875,-1.6015625
0.046,4.00390625,-5.125,-0.8408203125
0.0465,2.8828125,-5.28515625,0.48046875
0.047,1.6015625,-5.525390625,1.921875
0.0475,0.6806640625,-5.9658203125,3.3232421875
0.048,0.1201171875,-6.40625,4.32421875
0.0485,-0.720703125,-6.3662109375,4.96484375
0.049,-1.76171875,-5.60546875,5.3251953125
0.0495,-3.0830078125,-4.2841796875,5.6455078125
0.05,-4.3642578125,-2.962890625,5.8857421875
0.0505,-5.205078125,-2.08203125,6.166015625
0.051,-5.525390625,-1.5615234375,6.2060546875
0.0515,-5.4453125,-0.8408203125,5.685546875
0.052,-5.205078125,0.2802734375,4.6845703125
0.0525,-5.0849609375,1.6015625,3.5234375
0.053,-5.0849609375,2.9228515625,2.40234375
0.0535,-5.125,3.8837890625,1.7216796875
0.054,-4.7646484375,4.404296875,1.0810546875
0.0545,-3.9638671875,4.6044921875,0.16015625
0.055,-2.72265625,4.7646484375,-1.28125
0.0555,-1.44140625,5.044921875,-2.802734375
0.056,-0.640625,5.4853515625,-4.0439453125
0.0565,0.0,5.7255859375,-4.9248046875
0.057,0.880859375,5.365234375,-5.4453125
0.0575,2.0419921875,4.32421875,-5.7255859375
0.058,3.36328125,3.0029296875,-5.9658203125
0.0585,4.484375,1.76171875,-6.166015625
0.059,5.1650390625,1.041015625,-6.4462890625
0.0595,5.28515625,0.4404296875,-6.24609375
0.06,5.0849609375,-0.4404296875,-5.525390625
0.0605,4.8046875,-1.6416015625,-4.32421875
0.061,4.724609375,-3.0830078125,-3.04296875
0.0615,4.7646484375,-4.32421875,-2.0419921875
0.062,4.64453125,-5.0849609375,-1.4013671875
0.0625,4.1240234375,-5.4052734375,-0.6806640625
0.063,3.0029296875,-5.4853515625,0.5205078125
0.0635,1.6416015625,-5.685546875,1.9619140625
0.064,0.48046875,-5.9658203125,3.4833984375
0.0645,-0.2802734375,-6.4462890625,4.6044921875
0.065,-0.9609375,-6.486328125,5.28515625
0.0655,-1.8818359375,-5.765625,5.7255859375
0.066,-3.2431640625,-4.4443359375,5.9658203125
0.0665,-4.564453125,-3.0029296875,6.1259765625
0.067,-5.525390625,-1.8818359375,6.326171875
0.0675,-5.92578125,-1.28125,6.3662109375
0.068,-5.8056640625,-0.6005859375,5.8857421875
0.0685,-5.4853515625,0.5205078125,4.8447265625
0.069,-5.205078125,1.8818359375,3.5234375
0.0695,-5.125,3.2431640625,2.2421875
0.07,-5.125,4.32421875,1.4013671875
0.0705,-4.8447265625,4.884765625,0.7607421875
0.071,-4.0439453125,5.044921875,-0.16015625
0.0715,-2.642578125,5.0849609375,-1.521484375
0.072,-1.2412109375,5.2451171875,-3.1630859375
0.0725,-0.2802734375,5.5654296875,-4.484375
0.073,0.400390625,5.8857421875,-5.4052734375
0.0735,1.12109375,5.60546875,-5.92578125
0.074,2.322265625,4.484375,-6.166015625
0.0745,3.7236328125,3.0029296875,-6.3662109375
0.075,4.96484375,1.5615234375,-6.4462890625
0.0755,5.685546875,0.6806640625,-6.646484375
0.076,5.8056640625,0.1201171875,-6.486328125
0.0765,5.525390625,-0.7607421875,-5.765625
0.077,5.1650390625,-1.9619140625,-4.4443359375
0.0775,4.884765625,-3.4833984375,-2.9228515625
0.078,4.8046875,-4.8447265625,-1.76171875
0.0785,4.7646484375,-5.685546875,-1.0009765625
0.079,4.1640625,-6.005859375,-0.3203125
0.0795,3.04296875,-6.0458984375,0.8408203125
0.08,1.521484375,-6.1259765625,2.40234375
0.0805,0.080078125,-6.2861328125,3.9638671875
0.081,-0.80078125,-6.6064453125,5.1650390625
0.0815,-1.361328125,-6.646484375,5.92578125
0.082,-2.2822265625,-5.9658203125,6.326171875
0.0825,-3.68359375,-4.5244140625,6.486328125
0.083,-5.044921875,-2.962890625,6.56640625
0.0835,-6.0859375,-1.6015625,6.6064453125
0.084,-6.5263671875,-0.8408203125,6.646484375
0.0845,-6.40625,0.0,6.166015625
0.085,-6.005859375,0.880859375,5.125
0.0855,-5.5654296875,2.2822265625,3.5634765625
0.086,-5.3251953125,3.8037109375,2.0419921875
0.0865,-5.205078125,4.96484375,1.0009765625
0.087,-4.9248046875,5.4853515625,0.3203125
0.0875,-4.083984375,5.60546875,-0.560546875
0.088,-2.642578125,5.5654296875,-1.8818359375
0.0885,-1.041015625,5.5654296875,-3.5634765625
0.089,0.3203125,5.7255859375,-5.0048828125
0.0895,0.9208984375,6.0458984375,-5.92578125
0.09,1.5615234375,5.765625,-6.486328125
0.0905,2.6025390625,4.8046875,-6.7265625
0.091,4.083984375,3.1630859375,-6.806640625
0.0915,5.3251953125,1.5615234375,-6.806640625
0.092,6.0859375,0.4404296875,-6.8466796875
0.0925,6.326171875,-0.3203125,-6.7265625
0.093,6.005859375,-1.041015625,-6.0458984375
0.0935,5.525390625,-2.2021484375,-4.7646484375
0.094,5.0849609375,-3.6435546875,-3.0830078125
0.0945,4.884765625,-5.044921875,-1.681640625
0.095,4.7646484375,-6.005859375,-0.80078125
0.0955,4.32421875,-6.40625,0.0
0.096,3.283203125,-6.40625,0.8408203125
0.0965,1.681640625,-6.3662109375,2.3623046875
0.097,0.0400390625,-6.3662109375,3.9638671875
0.0975,-1.0009765625,-6.56640625,5.28515625
0.098,-1.5615234375,-6.7666015625,6.0859375
0.0985,-2.2822265625,-6.2861328125,6.5263671875
0.099,-3.5234375,-5.0048828125,6.6865234375
0.0995,-4.884765625,-3.36328125,6.7265625
0.1,-6.0458984375,-1.8017578125,6.6865234375
0.1005,-6.6865234375,-0.8408203125,6.7265625
0.101,-6.6865234375,-0.240234375,6.4462890625
0.1015,-6.2861328125,0.640625,5.60546875
0.102,-5.765625,1.921875,4.1240234375
0.1025,-5.4052734375,3.4033203125,2.5224609375
0.103,-5.2451171875,4.6845703125,1.28125
0.1035,-5.0849609375,5.4853515625,0.5205078125
0.104,-4.4443359375,5.7255859375,-0.3203125
0.1045,-3.2431640625,5.60546875,-1.3212890625
0.105,-1.6015625,5.5654296875,-2.962890625
0.1055,0.0,5.685546875,-4.5244140625
0.106,0.7607421875,5.9658203125,-5.6455078125
0.1065,1.28125,6.005859375,-6.326171875
0.107,2.162109375,5.2451171875,-6.6064453125
0.1075,3.4833984375,3.84375,-6.7666015625
0.108,4.8046875,2.2421875,-6.7666015625
0.1085,5.845703125,0.880859375,-6.8466796875
0.109,6.24609375,0.1201171875,-6.806640625
0.1095,6.1259765625,-0.640625,-6.40625
0.11,5.7255859375,-1.521484375,-5.4453125
0.1105,5.2451171875,-2.9228515625,-3.84375
0.111,4.96484375,-4.404296875,-2.2822265625
0.1115,4.8447265625,-5.60546875,-1.2412109375
0.112,4.6044921875,-6.24609375,-0.5205078125
0.1125,3.84375,-6.40625,0.3203125
0.113,2.482421875,-6.3662109375,1.5615234375
0.1135,0.7607421875,-6.2861328125,3.2431640625
0.114,-0.6005859375,-6.4462890625,4.7646484375
0.1145,-1.2412109375,-6.7666015625,5.7255859375
0.115,-1.841796875,-6.56640625,6.3662109375
0.1155,-2.8828125,-5.685546875,6.6064453125
0.116,-4.3642578125,-4.0439453125,6.7265625
0.1165,-5.6455078125,-2.4423828125,6.7666015625
0.117,-6.5263671875,-1.2412109375,6.806640625
0.1175,-6.7265625,-0.6005859375,6.6865234375
0.118,-6.4462890625,0.2802734375,6.0458984375
0.1185,-6.005859375,1.361328125,4.7646484375
0.119,-5.60546875,2.8828125,3.123046875
0.1195,-5.365234375,4.32421875,1.6416015625
0.12,-5.2451171875,5.3251953125,0.7607421875
0.1205,-4.8046875,5.685546875,0.080078125
0.121,-3.8037109375,5.7255859375,-0.9208984375
0.1215,-2.162109375,5.685546875,-2.4423828125
0.122,-0.5205078125,5.7255859375,-4.1240234375
0.1225,0.6005859375,5.8857421875,-5.4453125
0.123,1.12109375,6.0859375,-6.2861328125
0.1235,1.921875,5.60546875,-6.6865234375
0.124,3.1630859375,4.32421875,-6.806640625
0.1245,4.564453125,2.642578125,-6.88671875
0.125,5.7255859375,1.12109375,-6.8466796875
0.1255,6.2861328125,0.2001953125,-6.88671875
0.126,6.24609375,-0.5205078125,-6.6064453125
0.1265,5.8857421875,-1.3212890625,-5.765625
0.127,5.365234375,-2.6025390625,-4.244140625
0.1275,5.0048828125,-4.0439453125,-2.6025390625
0.128,4.8447265625,-5.365234375,-1.361328125
0.1285,4.64453125,-6.166015625,-0.640625
0.129,4.0439453125,-6.40625,0.16015625
0.1295,2.8427734375,-6.326171875,1.2412109375
0.13,1.201171875,-6.2861328125,2.802734375
0.1305,-0.3603515625,-6.2861328125,4.404296875
0.131,-1.1611328125,-6.6064453125,5.4853515625
0.1315,-1.6416015625,-6.6865234375,6.166015625
0.132,-2.482421875,-5.9658203125,6.4462890625
0.1325,-3.8037109375,-4.564453125,6.56640625
0.133,-5.125,-3.0029296875,6.6064453125
0.1335,-6.1259765625,-1.6015625,6.6064453125
0.134,-6.5263671875,-0.8408203125,6.646484375
0.1345,-6.40625,-0.2001953125,6.2060546875
0.135,-6.005859375,0.720703125,5.2451171875
0.1355,-5.5654296875,2.0419921875,3.763671875
0.136,-5.2451171875,3.5234375,2.2421875
0.1365,-5.1650390625,4.6845703125,1.201171875
0.137,-4.9248046875,5.2451171875,0.560546875
0.1375,-4.244140625,5.4453125,-0.3203125
0.138,-2.9228515625,5.4052734375,-1.44140625
0.1385,-1.361328125,5.4453125,-3.0830078125
0.139,0.0,5.60546875,-4.5244140625
0.1395,0.6005859375,6.005859375,-5.525390625
0.14,1.201171875,5.8857421875,-6.1259765625
0.1405,2.08203125,5.0849609375,-6.40625
0.141,3.5234375,3.5634765625,-6.486328125
0.1415,4.8046875,2.0419921875,-6.56640625
0.142,5.685546875,0.9208984375,-6.6865234375
0.1425,5.92578125,0.2802734375,-6.6865234375
0.143,5.7255859375,-0.48046875,-6.166015625
0.1435,5.365234375,-1.4814453125,-5.0849609375
0.144,5.0048828125,-2.8828125,-3.5634765625
0.1445,4.8447265625,-4.3642578125,-2.2421875
0.145,4.8046875,-5.4052734375,-1.3212890625
0.1455,4.484375,-5.845703125,-0.720703125
0.146,3.6435546875,-5.9658203125,0.2001953125
0.1465,2.2421875,-5.9658203125,1.521484375
0.147,0.6806640625,-6.0458984375,3.1630859375
0.1475,-0.3603515625,-6.3662109375,4.484375
0.148,-0.9208984375,-6.6064453125,5.4052734375
0.1485,-1.6416015625,-6.326171875,5.8857421875
0.149,-2.72265625,-5.28515625,6.0859375
0.1495,-4.083984375,-3.84375,6.24609375
0.15,-5.28515625,-2.40234375,6.326171875
0.1505,-5.9658203125,-1.4814453125,6.4462890625
0.151,-6.0859375,-0.9208984375,6.326171875
0.1515,-5.8056640625,-0.2001953125,5.685546875
0.152,-5.4453125,0.9609375,4.484375
0.1525,-5.1650390625,2.3623046875,3.04296875
0.153,-5.125,3.68359375,1.921875
0.1535,-5.0849609375,4.564453125,1.201171875
0.154,-4.6044921875,4.9248046875,0.560546875
0.1545,-3.6435546875,4.96484375,-0.48046875
0.155,-2.2822265625,5.0849609375,-1.8818359375
0.1555,-0.9609375,5.205078125,-3.36328125
0.156,-0.16015625,5.60546875,-4.564453125
0.1565,0.4404296875,5.8056640625,-5.3251953125
0.157,1.2412109375,5.365234375,-5.7255859375
0.1575,2.40234375,4.2041015625,-5.92578125
0.158,3.68359375,2.8427734375,-6.1259765625
0.1585,4.7646484375,1.6015625,-6.2861328125
0.159,5.3251953125,0.9609375,-6.486328125
0.1595,5.365234375,0.400390625,-6.2861328125
0.16,5.125,-0.48046875,-5.60546875
0.1605,4.8046875,-1.681640625,-4.404296875
0.161,4.64453125,-3.04296875,-3.0830078125
0.1615,4.724609375,-4.244140625,-2.1220703125
0.162,4.6845703125,-5.0048828125,-1.4814453125
0.1625,4.1240234375,-5.3251953125,-0.80078125
0.163,3.123046875,-5.4453125,0.3203125
0.1635,1.8017578125,-5.60546875,1.76171875
0.164,0.640625,-5.92578125,3.203125
0.1645,0.0,-6.3662109375,4.32421875
0.165,-0.6806640625,-6.4462890625,5.044921875
0.1655,-1.5615234375,-5.8857421875,5.4052734375
0.166,-2.8427734375,-4.6845703125,5.7255859375
0.1665,-4.1240234375,-3.36328125,5.8857421875
0.167,-5.1650390625,-2.2822265625,6.166015625
0.1675,-5.5654296875,-1.681640625,6.326171875
0.168,-5.5654296875,-1.0810546875,5.92578125
0.1685,-5.3251953125,-0.240234375,5.0849609375
0.169,-5.125,1.12109375,3.923828125
0.1695,-5.0849609375,2.482421875,2.72265625
0.17,-5.125,3.603515625,1.921875
0.1705,-4.96484375,4.2041015625,1.3212890625
0.171,-4.32421875,4.484375,0.6005859375
0.1715,-3.1630859375,4.64453125,-0.720703125
0.172,-1.8818359375,4.884765625,-2.2021484375
0.1725,-0.9609375,5.28515625,-3.5234375
0.173,-0.400390625,5.7255859375,-4.484375
0.1735,0.3603515625,5.5654296875,-5.0849609375
0.174,1.4013671875,4.8046875,-5.4453125
0.1745,2.6826171875,3.5634765625,-5.7255859375
0.175,3.8837890625,2.2822265625,-5.92578125
0.1755,4.7646484375,1.521484375,-6.2861328125
0.176,5.044921875,0.9609375,-6.2861328125
0.1765,4.96484375,0.2802734375,-5.845703125
0.177,4.724609375,-0.80078125,-4.884765625
0.1775,4.564453125,-2.08203125,-3.763671875
0.178,4.6044921875,-3.36328125,-2.72265625
0.1785,4.724609375,-4.32421875,-2.08203125
0.179,4.484375,-4.8447265625,-1.44140625
0.1795,3.6435546875,-5.0849609375,-0.6005859375
0.18,2.482421875,-5.28515625,0.80078125
0.1805,1.28125,-5.5654296875,2.2822265625
0.181,0.6005859375,-6.0859375,3.5234375
0.1815,0.0,-6.40625,4.404296875
0.182,-0.8408203125,-6.1259765625,4.9248046875
0.1825,-2.001953125,-5.1650390625,5.28515625
0.183,-3.3232421875,-3.9638671875,5.5654296875
0.1835,-4.484375,-2.802734375,5.8857421875
0.184,-5.1650390625,-2.1220703125,6.166015625
0.1845,-5.3251953125,-1.6015625,6.0458984375
0.185,-5.205078125,-0.9208984375,5.4453125
0.1855,-5.0849609375,0.2802734375,4.484375
0.186,-5.0048828125,1.681640625,3.3232421875
0.1865,-5.0849609375,2.9228515625,2.4423828125
0.187,-5.0849609375,3.763671875,1.841796875
0.1875,-4.64453125,4.1240234375,1.1611328125
0.188,-3.7236328125,4.404296875,0.1201171875
0.1885,-2.5625,4.64453125,-1.361328125
0.189,-1.4814453125,5.044921875,-2.7626953125
0.1895,-0.8408203125,5.5654296875,-3.923828125
0.19,-0.2001953125,5.685546875,-4.6845703125
0.1905,0.7607421875,5.1650390625,-5.1650390625
0.191,2.0419921875,4.083984375,-5.4853515625
0.1915,3.36328125,2.802734375,-5.765625
0.192,4.404296875,1.841796875,-6.1259765625
0.1925,4.884765625,1.201171875,-6.3662109375
0.193,4.9248046875,0.6005859375,-6.0458984375
0.1935,4.7646484375,-0.3603515625,-5.28515625
0.194,4.6044921875,-1.5615234375,-4.1240234375
0.1945,4.6044921875,-2.9228515625,-3.04296875
0.195,4.724609375,-4.0439453125,-2.2421875
0.1955,4.6044921875,-4.724609375,-1.6416015625
0.196,3.9638671875,-5.044921875,-0.9208984375
0.1965,2.8828125,-5.205078125,0.4404296875
0.197,1.6015625,-5.4853515625,1.921875
0.1975,0.7607421875,-5.9658203125,3.2431640625
0.198,0.16015625,-6.40625,4.2841796875
0.1985,-0.6806640625,-6.2861328125,4.9248046875
0.199,-1.76171875,-5.4453125,5.28515625
0.1995,-3.0830078125,-4.2041015625,5.60546875
0.2,-4.3642578125,-2.9228515625,5.845703125
0.2005,-5.205078125,-2.1220703125,6.1259765625
0.201,-5.4453125,-1.5615234375,6.1259765625
0.2015,-5.4052734375,-0.9208984375,5.6455078125
0.202,-5.125,0.2802734375,4.6044921875
0.2025,-5.0048828125,1.6416015625,3.443359375
0.203,-5.0849609375,3.0029296875,2.3623046875
0.2035,-5.0849609375,3.923828125,1.681640625
0.204,-4.6845703125,4.3642578125,1.0009765625
0.2045,-3.84375,4.5244140625,0.1201171875
0.205,-2.6025390625,4.7646484375,-1.361328125
0.2055,-1.4013671875,5.044921875,-2.8828125
0.206,-0.640625,5.4853515625,-4.0439453125
0.2065,0.0,5.7255859375,-4.884765625
0.207,0.8408203125,5.3251953125,-5.4052734375
0.2075,2.08203125,4.2041015625,-5.685546875
0.208,3.443359375,2.8828125,-5.92578125
0.2085,4.564453125,1.6015625,-6.166015625
0.209,5.125,1.0009765625,-6.40625
0.2095,5.1650390625,0.3603515625,-6.166015625
0.21,5.0048828125,-0.4404296875,-5.4453125
0.2105,4.7646484375,-1.6416015625,-4.244140625
0.211,4.64453125,-3.04296875,-3.0029296875
0.2115,4.724609375,-4.2841796875,-2.0419921875
0.212,4.6044921875,-5.0048828125,-1.44140625
0.2125,4.0439453125,-5.3251953125,-0.6806640625
0.213,2.9228515625,-5.4453125,0.5205078125
0.2135,1.6015625,-5.60546875,1.9619140625
0.214,0.5205078125,-5.92578125,3.443359375
0.2145,-0.2001953125,-6.40625,4.5244140625
0.215,-0.8408203125,-6.40625,5.1650390625
0.2155,-1.8017578125,-5.7255859375,5.60546875
0.216,-3.203125,-4.3642578125,5.845703125
0.2165,-4.5244140625,-3.04296875,6.0458984375
0.217,-5.4453125,-1.9619140625,6.24609375
0.2175,-5.765625,-1.4013671875,6.2861328125
0.218,-5.6455078125,-0.6806640625,5.8056640625
0.2185,-5.365234375,0.400390625,4.8046875
0.219,-5.1650390625,1.7216796875,3.5234375
0.2195,-5.0849609375,3.123046875,2.2822265625
0.22,-5.125,4.1240234375,1.521484375
0.2205,-4.8046875,4.64453125,0.880859375
0.221,-4.00390625,4.8046875,0.0400390625
0.2215,-2.72265625,4.884765625,-1.3212890625
0.222,-1.361328125,5.0849609375,-2.8828125
0.2225,-0.4404296875,5.4853515625,-4.2041015625
0.223,0.240234375,5.845703125,-5.125
0.2235,1.0009765625,5.4853515625,-5.6455078125
0.224,2.1220703125,4.484375,-5.92578125
0.2245,3.5234375,3.04296875,-6.166015625
0.225,4.724609375,1.681640625,-6.3662109375
0.2255,5.4052734375,0.8408203125,-6.56640625
0.226,5.5654296875,0.2802734375,-6.40625
0.2265,5.365234375,-0.560546875,-5.765625
0.227,5.044921875,-1.76171875,-4.484375
0.2275,4.8447265625,-3.203125,-3.0830078125
0.228,4.8046875,-4.564453125,-1.9619140625
0.2285,4.7646484375,-5.4453125,-1.201171875
