wavelength,x,y,z
0.0,6.8116455078125,1.4464111328125,-8.2030029296875
0.0005,5.4503173828125,3.6085205078125,-9.0438232421875
0.001,3.6085205078125,5.1700439453125,-8.8436279296875
0.0015,2.1671142578125,6.5714111328125,-8.7235107421875
0.002,0.8057861328125,7.3321533203125,-8.2030029296875
0.0025,-0.8358154296875,8.1329345703125,-7.4422607421875
0.003,-2.6375732421875,8.7735595703125,-6.3211669921875
0.0035,-4.3992919921875,9.2139892578125,-5.0799560546875
0.004,-5.6405029296875,8.8936767578125,-3.5584716796875
0.0045,-6.6815185546875,8.5733642578125,-2.1971435546875
0.005,-7.3221435546875,7.7325439453125,-0.7156982421875
0.0055,-8.0428466796875,6.6915283203125,1.0860595703125
0.006,-8.8436279296875,5.6104736328125,2.9678955078125
0.0065,-8.9237060546875,4.1690673828125,4.4893798828125
0.007,-8.8035888671875,2.6475830078125,5.8907470703125
0.0075,-8.1629638671875,1.1260986328125,6.7315673828125
0.008,-7.4422607421875,-0.5955810546875,7.6925048828125
0.0085,-6.1209716796875,-2.5975341796875,8.3731689453125
0.009,-4.6795654296875,-4.6795654296875,9.0137939453125
0.0095,-2.8778076171875,-6.1209716796875,8.6534423828125
0.01,-1.5965576171875,-7.2821044921875,8.6534423828125
0.0105,-0.1551513671875,-8.0028076171875,7.9727783203125
0.011,1.5665283203125,-8.7635498046875,7.0919189453125
0.0115,3.5284423828125,-9.5643310546875,5.9307861328125
0.012,5.0899658203125,-9.6043701171875,4.4893798828125
0.0125,6.3311767578125,-9.3240966796875,3.0479736328125
0.013,7.1719970703125,-8.8035888671875,1.6466064453125
0.0135,7.9327392578125,-7.9627685546875,0.0450439453125
0.014,8.6134033203125,-6.8016357421875,-1.8367919921875
0.0145,9.3341064453125,-5.6004638671875,-3.7586669921875
0.015,9.1339111328125,-3.9989013671875,-5.1600341796875
0.0155,8.9337158203125,-2.4774169921875,-6.4412841796875
0.016,8.1329345703125,-0.9158935546875,-7.2020263671875
0.0165,7.2921142578125,0.8458251953125,-8.1229248046875
0.017,5.8106689453125,3.0479736328125,-8.9237060546875
0.0175,4.1690673828125,4.9298095703125,-9.1639404296875
0.018,2.4073486328125,6.3712158203125,-8.8035888671875
0.0185,1.1260986328125,7.3721923828125,-8.4832763671875
0.019,-0.5155029296875,8.0528564453125,-7.7225341796875
0.0195,-2.2371826171875,8.6534423828125,-6.6815185546875
0.02,-4.2391357421875,9.4542236328125,-5.4403076171875
0.0205,-5.5604248046875,9.0938720703125,-3.7987060546875
0.021,-6.7615966796875,8.8936767578125,-2.3973388671875
0.0215,-7.3621826171875,7.9727783203125,-0.9959716796875
0.022,-8.1229248046875,7.0518798828125,0.7657470703125
0.0225,-8.7635498046875,5.8106689453125,2.6475830078125
0.023,-9.2039794921875,4.4893798828125,4.4493408203125
0.0235,-8.9237060546875,2.8878173828125,5.7305908203125
0.024,-8.4832763671875,1.3262939453125,6.8917236328125
0.0245,-7.6424560546875,-0.3153076171875,7.6124267578125
0.025,-6.5614013671875,-2.1571044921875,8.3731689453125
0.0255,-4.9998779296875,-4.4793701171875,9.0938720703125
0.026,-3.1981201171875,-6.0008544921875,8.8936767578125
0.0265,-1.7166748046875,-7.2821044921875,8.7335205078125
0.027,-0.3953857421875,-8.0028076171875,8.2130126953125
0.0275,1.2862548828125,-8.8035888671875,7.3721923828125
0.028,3.1280517578125,-9.4041748046875,6.2110595703125
0.0285,4.9698486328125,-9.8846435546875,4.8497314453125
0.029,6.2110595703125,-9.4041748046875,3.2081298828125
0.0295,7.2921142578125,-9.1239013671875,1.8868408203125
0.03,7.8526611328125,-8.1629638671875,0.3653564453125
0.0305,8.5733642578125,-7.1219482421875,-1.3963623046875
0.031,9.2540283203125,-5.8807373046875,-3.3582763671875
0.0315,9.3341064453125,-4.3592529296875,-4.9998779296875
0.032,9.0137939453125,-2.7576904296875,-6.2811279296875
0.0325,8.3331298828125,-1.2762451171875,-7.1219482421875
0.033,7.5323486328125,0.4454345703125,-7.9627685546875
0.0335,6.2911376953125,2.4073486328125,-8.6834716796875
0.034,4.7296142578125,4.6094970703125,-9.3240966796875
0.0345,2.8077392578125,6.0108642578125,-8.8436279296875
0.035,1.4464111328125,7.2120361328125,-8.7235107421875
0.0355,0.0050048828125,7.8526611328125,-7.9627685546875
0.036,-1.6766357421875,8.5333251953125,-7.0418701171875
0.0365,-3.6385498046875,9.2540283203125,-5.8006591796875
0.037,-5.2000732421875,9.2940673828125,-4.3192138671875
0.0375,-6.3612060546875,8.8936767578125,-2.7977294921875
0.038,-7.2420654296875,8.2930908203125,-1.4364013671875
0.0385,-7.8426513671875,7.3721923828125,0.2452392578125
0.039,-8.4832763671875,6.2911376953125,1.9669189453125
0.0395,-9.2039794921875,5.0499267578125,3.8887939453125
0.04,-8.9637451171875,3.3682861328125,5.2901611328125
0.0405,-8.7235107421875,1.8468017578125,6.5714111328125
0.041,-7.8826904296875,0.2852783203125,7.3321533203125
0.0415,-7.0418701171875,-1.5164794921875,8.1329345703125
0.042,-5.6004638671875,-3.5584716796875,8.8536376953125
0.0425,-3.8787841796875,-5.4803466796875,9.0938720703125
0.043,-2.2371826171875,-6.7215576171875,8.6934814453125
0.0435,-0.9158935546875,-7.8426513671875,8.5333251953125
0.044,0.6856689453125,-8.4832763671875,7.6925048828125
0.0445,2.3673095703125,-9.1239013671875,6.6915283203125
0.045,4.4093017578125,-9.8846435546875,5.4503173828125
0.0455,5.7305908203125,-9.5643310546875,3.8087158203125
0.046,6.9317626953125,-9.2840576171875,2.4073486328125
0.0465,7.6524658203125,-8.5233154296875,0.9259033203125
0.047,8.3731689453125,-7.5623779296875,-0.7957763671875
0.0475,9.0137939453125,-6.4012451171875,-2.6375732421875
0.048,9.5343017578125,-4.9998779296875,-4.5594482421875
0.0485,9.0938720703125,-3.3182373046875,-5.8406982421875
0.049,8.7335205078125,-1.7967529296875,-7.0018310546875
0.0495,7.8126220703125,-0.1551513671875,-7.7225341796875
0.05,6.8116455078125,1.7667236328125,-8.5233154296875
0.0505,5.2901611328125,4.0089111328125,-9.2840576171875
0.051,3.4083251953125,5.7305908203125,-9.1239013671875
0.0515,1.8868408203125,6.8917236328125,-8.8035888671875
0.052,0.4854736328125,7.7725830078125,-8.3231201171875
0.0525,-1.2362060546875,8.4132080078125,-7.3621826171875
0.053,-2.9979248046875,9.0137939453125,-6.2410888671875
0.0535,-4.9197998046875,9.5743408203125,-4.8797607421875
0.054,-6.1209716796875,8.9737548828125,-3.1981201171875
0.0545,-7.2420654296875,8.7335205078125,-1.7967529296875
0.055,-7.7225341796875,7.6925048828125,-0.2752685546875
0.0555,-8.4031982421875,6.6514892578125,1.5264892578125
0.056,-9.0838623046875,5.4102783203125,3.4083251953125
0.0565,-9.2039794921875,3.7686767578125,5.0899658203125
0.057,-8.7635498046875,2.2471923828125,6.2510986328125
0.0575,-8.2830810546875,0.6456298828125,7.2921142578125
0.058,-7.2420654296875,-1.0360107421875,7.9327392578125
0.0585,-6.1209716796875,-2.8778076171875,8.6534423828125
0.059,-4.4393310546875,-5.1199951171875,9.2139892578125
0.0595,-2.5975341796875,-6.4412841796875,8.7735595703125
0.06,-1.2762451171875,-7.6424560546875,8.6534423828125
0.0605,0.2852783203125,-8.3231201171875,7.8927001953125
0.061,1.9268798828125,-8.9637451171875,6.9317626953125
0.0615,3.7686767578125,-9.6444091796875,5.8106689453125
0.062,5.4503173828125,-9.7645263671875,4.3292236328125
0.0625,6.5313720703125,-9.2840576171875,2.8077392578125
0.063,7.4923095703125,-8.8436279296875,1.3663330078125
0.0635,7.9727783203125,-7.7625732421875,-0.2352294921875
0.064,8.6934814453125,-6.7615966796875,-1.9168701171875
0.0645,9.3341064453125,-5.5604248046875,-3.8787841796875
0.065,9.0938720703125,-3.8787841796875,-5.2801513671875
0.0655,8.8135986328125,-2.4373779296875,-6.4412841796875
0.066,8.0128173828125,-0.7957763671875,-7.2420654296875
0.0665,7.1319580078125,0.9259033203125,-8.0028076171875
0.067,5.8907470703125,2.8878173828125,-8.7635498046875
0.0675,4.2091064453125,4.8497314453125,-9.0438232421875
0.068,2.5274658203125,6.0909423828125,-8.6033935546875
0.0685,1.2462158203125,7.1719970703125,-8.4832763671875
0.069,-0.3153076171875,7.8126220703125,-7.6424560546875
0.0695,-1.8768310546875,8.4532470703125,-6.7215576171875
0.07,-3.7186279296875,9.0938720703125,-5.6004638671875
0.0705,-5.0799560546875,8.8936767578125,-4.0789794921875
0.071,-6.1610107421875,8.6134033203125,-2.7176513671875
0.0715,-6.9217529296875,7.9727783203125,-1.3162841796875
0.072,-7.5623779296875,7.0518798828125,0.2852783203125
0.0725,-8.3231201171875,6.0909423828125,1.9268798828125
0.073,-8.8436279296875,4.8096923828125,3.7286376953125
0.0735,-8.6033935546875,3.3282470703125,4.9698486328125
0.074,-8.3631591796875,1.9268798828125,6.2110595703125
0.0745,-7.6024169921875,0.4053955078125,6.9317626953125
0.075,-6.7615966796875,-1.3563232421875,7.8126220703125
0.0755,-5.4403076171875,-3.3582763671875,8.4932861328125
0.076,-3.7987060546875,-5.0399169921875,8.5333251953125
0.0765,-2.4373779296875,-6.2010498046875,8.4132080078125
0.077,-1.1561279296875,-7.2420654296875,8.1729736328125
0.0775,0.3653564453125,-7.9627685546875,7.4522705078125
0.078,1.9669189453125,-8.7235107421875,6.6514892578125
0.0785,3.8087158203125,-9.3240966796875,5.4503173828125
0.079,5.0499267578125,-9.0438232421875,4.0089111328125
0.0795,6.2110595703125,-8.9237060546875,2.7276611328125
0.08,6.9317626953125,-8.2030029296875,1.2862548828125
0.0805,7.7725830078125,-7.4022216796875,-0.3953857421875
0.081,8.5733642578125,-6.4813232421875,-2.0770263671875
0.0815,8.9337158203125,-5.1199951171875,-3.8787841796875
0.082,8.6934814453125,-3.6785888671875,-5.0399169921875
0.0825,8.3331298828125,-2.1571044921875,-6.2410888671875
0.083,7.6524658203125,-0.6356201171875,-7.0819091796875
0.0835,6.7315673828125,1.2862548828125,-8.0028076171875
0.084,5.4102783203125,3.3282470703125,-8.6834716796875
0.0845,3.6485595703125,4.8497314453125,-8.4832763671875
0.085,2.3673095703125,6.0909423828125,-8.4832763671875
0.0855,0.9659423828125,7.0118408203125,-8.0028076171875
0.086,-0.6756591796875,7.7725830078125,-7.2420654296875
0.0865,-2.3973388671875,8.5733642578125,-6.3612060546875
0.087,-4.1190185546875,8.9337158203125,-5.0399169921875
0.0875,-5.2401123046875,8.6134033203125,-3.6385498046875
0.088,-6.3612060546875,8.2930908203125,-2.2772216796875
0.0885,-7.0418701171875,7.4122314453125,-0.7156982421875
0.089,-7.8826904296875,6.5714111328125,1.0059814453125
0.0895,-8.6434326171875,5.4903564453125,2.8477783203125
0.09,-8.6834716796875,4.0089111328125,4.4093017578125
0.0905,-8.4832763671875,2.5675048828125,5.6505126953125
0.091,-8.0028076171875,1.0059814453125,6.6915283203125
0.0915,-7.0819091796875,-0.7156982421875,7.5323486328125
0.092,-6.0408935546875,-2.6375732421875,8.3731689453125
0.0925,-4.3592529296875,-4.6795654296875,8.7735595703125
0.093,-2.7977294921875,-6.0008544921875,8.4932861328125
0.0935,-1.4764404296875,-7.2020263671875,8.4532470703125
0.094,0.0850830078125,-7.9627685546875,7.6925048828125
0.0945,1.8067626953125,-8.6834716796875,6.7716064453125
0.095,3.6885986328125,-9.4842529296875,5.7305908203125
0.0955,5.2100830078125,-9.4041748046875,4.1690673828125
0.096,6.3311767578125,-9.1239013671875,2.8077392578125
0.0965,7.2520751953125,-8.6033935546875,1.2862548828125
0.097,7.9327392578125,-7.6424560546875,-0.3953857421875
0.0975,8.7335205078125,-6.6815185546875,-2.1971435546875
0.098,9.3341064453125,-5.2801513671875,-4.1190185546875
0.0985,9.0137939453125,-3.5584716796875,-5.4803466796875
0.099,8.6534423828125,-1.9969482421875,-6.6414794921875
0.0995,7.8126220703125,-0.3153076171875,-7.5223388671875
0.1,6.7315673828125,1.5665283203125,-8.3231201171875
0.1005,5.4102783203125,3.7286376953125,-9.0838623046875
0.101,3.5684814453125,5.5303955078125,-9.0438232421875
0.1015,2.0069580078125,6.6915283203125,-8.6834716796875
0.102,0.5655517578125,7.6925048828125,-8.3231201171875
0.1025,-1.2362060546875,8.3331298828125,-7.2420654296875
0.103,-2.9578857421875,8.9737548828125,-6.2010498046875
0.1035,-4.8397216796875,9.5343017578125,-4.8797607421875
0.104,-6.1209716796875,9.0137939453125,-3.1981201171875
0.1045,-7.1219482421875,8.6134033203125,-1.7967529296875
0.105,-7.8426513671875,7.6524658203125,-0.1551513671875
0.1055,-8.4031982421875,6.4512939453125,1.6466064453125
0.106,-9.1239013671875,5.4102783203125,3.4483642578125
0.1065,-9.3240966796875,3.7686767578125,5.2901611328125
0.107,-8.8436279296875,2.0870361328125,6.4512939453125
0.1075,-8.3231201171875,0.5255126953125,7.5723876953125
0.108,-7.0819091796875,-1.3963623046875,8.1729736328125
0.1085,-5.8406982421875,-3.3582763671875,8.9337158203125
0.109,-4.1990966796875,-5.4403076171875,9.3341064453125
0.1095,-2.3973388671875,-6.8817138671875,8.9737548828125
0.11,-0.9959716796875,-7.9227294921875,8.6534423828125
0.1105,0.6456298828125,-8.6834716796875,7.9327392578125
0.111,2.5274658203125,-9.2840576171875,6.6915283203125
0.1115,4.2891845703125,-9.8846435546875,5.5704345703125
0.112,6.0509033203125,-10.044799804688,4.0089111328125
0.1125,7.0518798828125,-9.4442138671875,2.4073486328125
0.113,8.0128173828125,-8.9237060546875,0.9259033203125
0.1135,8.5333251953125,-7.6824951171875,-0.9559326171875
0.114,9.1739501953125,-6.4412841796875,-2.7176513671875
0.1145,9.7344970703125,-5.1600341796875,-4.5194091796875
0.115,9.5343017578125,-3.3582763671875,-6.1209716796875
0.1155,8.8936767578125,-1.7967529296875,-7.0819091796875
0.116,8.1329345703125,0.0050048828125,-8.0428466796875
0.1165,6.7716064453125,1.9268798828125,-8.6834716796875
0.117,5.4503173828125,3.9288330078125,-9.3240966796875
0.1175,3.6485595703125,5.8507080078125,-9.4842529296875
0.118,1.8868408203125,7.0518798828125,-8.9637451171875
0.1185,0.5255126953125,7.9727783203125,-8.5633544921875
0.119,-1.3162841796875,8.6534423828125,-7.4822998046875
0.1195,-3.1180419921875,9.1339111328125,-6.2410888671875
0.12,-4.8397216796875,9.6143798828125,-4.9998779296875
0.1205,-6.2811279296875,9.3741455078125,-3.3983154296875
0.121,-7.2020263671875,8.7335205078125,-1.8768310546875
0.1215,-8.0028076171875,7.9727783203125,-0.3553466796875
0.122,-8.4832763671875,6.6915283203125,1.5264892578125
0.1225,-9.0438232421875,5.6104736328125,3.1680908203125
0.123,-9.4442138671875,4.1690673828125,4.9698486328125
0.1235,-9.0037841796875,2.4073486328125,6.3311767578125
0.124,-8.4832763671875,0.9259033203125,7.3321533203125
0.1245,-7.5223388671875,-0.9158935546875,8.0528564453125
0.125,-6.2010498046875,-2.8377685546875,8.6534423828125
0.1255,-4.7996826171875,-4.7196044921875,9.2139892578125
0.126,-2.9578857421875,-6.4412841796875,9.1339111328125
0.1265,-1.4764404296875,-7.4822998046875,8.6934814453125
0.127,0.0050048828125,-8.3631591796875,8.2530517578125
0.1275,1.7667236328125,-9.0037841796875,7.0919189453125
0.128,3.4884033203125,-9.5643310546875,5.9708251953125
0.1285,5.2100830078125,-9.9647216796875,4.6495361328125
0.129,6.4112548828125,-9.5643310546875,3.0880126953125
0.1295,7.3321533203125,-9.0438232421875,1.6866455078125
0.13,8.0528564453125,-8.1229248046875,0.0850830078125
0.1305,8.6134033203125,-6.9217529296875,-1.7166748046875
0.131,9.2540283203125,-5.9207763671875,-3.3582763671875
0.1315,9.4542236328125,-4.3592529296875,-5.1600341796875
0.132,8.9337158203125,-2.6375732421875,-6.2410888671875
0.1325,8.4532470703125,-1.1561279296875,-7.2821044921875
0.133,7.3321533203125,0.6856689453125,-8.0028076171875
0.1335,6.2110595703125,2.6075439453125,-8.7235107421875
0.134,4.6895751953125,4.4893798828125,-9.1639404296875
0.1345,2.8477783203125,6.0509033203125,-8.9237060546875
0.135,1.5264892578125,7.0518798828125,-8.5633544921875
0.1355,0.0050048828125,7.9727783203125,-8.0028076171875
0.136,-1.8768310546875,8.4932861328125,-6.8416748046875
0.1365,-3.4783935546875,9.0137939453125,-5.8406982421875
0.137,-5.1199951171875,9.2540283203125,-4.4793701171875
0.1375,-6.2010498046875,8.7335205078125,-2.9178466796875
0.138,-7.1619873046875,8.3331298828125,-1.5565185546875
0.1385,-7.7225341796875,7.2921142578125,0.2052001953125
0.139,-8.4031982421875,6.2510986328125,1.8868408203125
0.1395,-9.0037841796875,5.1700439453125,3.5284423828125
0.14,-9.0037841796875,3.5284423828125,5.2501220703125
0.1405,-8.5233154296875,2.0469970703125,6.2510986328125
0.141,-8.0028076171875,0.3653564453125,7.3721923828125
0.1415,-6.7615966796875,-1.5164794921875,7.9727783203125
0.142,-5.7205810546875,-3.3582763671875,8.7735595703125
0.1425,-3.9989013671875,-5.2801513671875,8.9737548828125
0.143,-2.4373779296875,-6.5614013671875,8.6934814453125
0.1435,-1.1160888671875,-7.5623779296875,8.4532470703125
0.144,0.6055908203125,-8.4031982421875,7.6925048828125
0.1445,2.3673095703125,-9.1239013671875,6.5714111328125
0.145,4.0489501953125,-9.6444091796875,5.4903564453125
0.1455,5.6505126953125,-9.6844482421875,3.9688720703125
0.146,6.5714111328125,-9.0838623046875,2.5274658203125
0.1465,7.6124267578125,-8.6033935546875,1.0059814453125
0.147,8.1729736328125,-7.3621826171875,-0.7957763671875
0.1475,8.9337158203125,-6.4412841796875,-2.5174560546875
0.148,9.4141845703125,-5.1199951171875,-4.2791748046875
0.1485,9.1739501953125,-3.3582763671875,-5.7606201171875
0.149,8.6134033203125,-1.8768310546875,-6.7215576171875
0.1495,7.8927001953125,-0.1151123046875,-7.7625732421875
0.15,6.5714111328125,1.9268798828125,-8.4832763671875
0.1505,5.3302001953125,3.8487548828125,-9.1639404296875
0.151,3.4483642578125,5.6905517578125,-9.1239013671875
0.1515,1.9268798828125,6.7716064453125,-8.7235107421875
0.152,0.4854736328125,7.8126220703125,-8.3231201171875
0.1525,-1.3963623046875,8.4532470703125,-7.2020263671875
0.153,-3.1580810546875,9.0938720703125,-6.1610107421875
0.1535,-4.8397216796875,9.3341064453125,-4.8397216796875
0.154,-6.2010498046875,9.1739501953125,-3.1981201171875
0.1545,-7.0819091796875,8.5733642578125,-1.7967529296875
0.155,-7.9227294921875,7.7325439453125,-0.1551513671875
0.1555,-8.4832763671875,6.3712158203125,1.8868408203125
0.156,-9.1239013671875,5.3702392578125,3.4884033203125
0.1565,-9.3240966796875,3.8087158203125,5.2901611328125
0.157,-8.8035888671875,2.0469970703125,6.4512939453125
0.1575,-8.3231201171875,0.5255126953125,7.5323486328125
0.158,-7.0819091796875,-1.4364013671875,8.2530517578125
0.1585,-5.7606201171875,-3.5584716796875,8.9737548828125
0.159,-4.1590576171875,-5.4002685546875,9.2540283203125
0.1595,-2.3973388671875,-6.9617919921875,9.0938720703125
0.16,-0.9959716796875,-7.8426513671875,8.6134033203125
0.1605,0.6456298828125,-8.8035888671875,7.9727783203125
0.161,2.6075439453125,-9.4041748046875,6.6514892578125
0.1615,4.3292236328125,-9.9647216796875,5.4903564453125
0.162,5.9708251953125,-9.9647216796875,3.9688720703125
0.1625,7.0518798828125,-9.4442138671875,2.4073486328125
0.163,7.8526611328125,-8.7635498046875,0.9259033203125
0.1635,8.5333251953125,-7.6824951171875,-0.9158935546875
0.164,9.1339111328125,-6.3211669921875,-2.8778076171875
0.1645,9.5343017578125,-5.1199951171875,-4.4393310546875
0.165,9.5343017578125,-3.3983154296875,-6.1209716796875
0.1655,8.7735595703125,-1.7567138671875,-7.0018310546875
0.166,8.1729736328125,-0.1951904296875,-8.0028076171875
0.1665,6.6915283203125,1.9268798828125,-8.6033935546875
0.167,5.3702392578125,3.9688720703125,-9.3240966796875
0.1675,3.5684814453125,5.6905517578125,-9.2840576171875
0.168,1.9268798828125,7.0518798828125,-8.9637451171875
0.1685,0.5655517578125,7.7325439453125,-8.3231201171875
0.169,-1.1561279296875,8.4932861328125,-7.5623779296875
0.1695,-3.0780029296875,9.0137939453125,-6.2010498046875
0.17,-4.6395263671875,9.4141845703125,-5.0399169921875
0.1705,-6.1209716796875,9.2540283203125,-3.4783935546875
0.171,-6.9217529296875,8.6534423828125,-1.9969482421875
0.1715,-7.7225341796875,7.9327392578125,-0.5955810546875
0.172,-8.2030029296875,6.6514892578125,1.2862548828125
0.1725,-8.9237060546875,5.6104736328125,3.0479736328125
0.173,-9.0838623046875,4.3292236328125,4.5294189453125
0.1735,-8.9637451171875,2.6475830078125,6.0108642578125
0.174,-8.2830810546875,1.2061767578125,6.8516845703125
0.1745,-7.5623779296875,-0.5955810546875,7.8126220703125
0.175,-6.1610107421875,-2.5174560546875,8.3731689453125
0.1755,-4.9598388671875,-4.3192138671875,8.9737548828125
0.176,-3.1580810546875,-5.9207763671875,8.8135986328125
0.1765,-1.8367919921875,-7.0819091796875,8.6134033203125
0.177,-0.4354248046875,-7.9227294921875,8.1329345703125
0.1775,1.2862548828125,-8.6434326171875,7.1719970703125
0.178,3.0079345703125,-9.2440185546875,6.1309814453125
