wavelength,x,y,z
0.0,-19.969482421875,-0.310302734375,19.228759765625
0.0005,-17.807373046875,-4.394287109375,21.110595703125
0.001,-15.685302734375,-7.837646484375,22.552001953125
0.0015,-11.801513671875,-11.160888671875,22.111572265625
0.002,-7.237060546875,-14.764404296875,21.470947265625
0.0025,-2.912841796875,-17.887451171875,20.469970703125
0.003,2.292236328125,-20.530029296875,18.227783203125
0.0035,6.095947265625,-21.971435546875,16.105712890625
0.004,9.259033203125,-22.291748046875,13.383056640625
0.0045,12.662353515625,-22.091552734375,9.979736328125
0.005,16.546142578125,-20.970458984375,5.094970703125
0.0055,19.268798828125,-19.529052734375,0.970947265625
0.006,21.390869140625,-17.366943359375,-3.193115234375
0.0065,22.552001953125,-15.044677734375,-6.676513671875
0.007,22.071533203125,-11.361083984375,-9.879638671875
0.0075,21.711181640625,-7.317138671875,-13.483154296875
0.008,20.950439453125,-3.313232421875,-16.726318359375
0.0085,19.228759765625,1.291259765625,-19.569091796875
0.009,16.946533203125,5.135009765625,-21.170654296875
0.0095,14.384033203125,8.378173828125,-22.091552734375
0.01,10.580322265625,11.821533203125,-21.771240234375
0.0105,5.415283203125,15.745361328125,-20.810302734375
0.011,1.291259765625,18.468017578125,-19.569091796875
0.0115,-3.553466796875,20.790283203125,-17.447021484375
0.012,-7.076904296875,22.111572265625,-15.405029296875
0.0125,-10.400146484375,21.911376953125,-12.041748046875
0.013,-13.643310546875,21.631103515625,-8.678466796875
0.0135,-17.246826171875,20.590087890625,-4.194091796875
0.014,-19.929443359375,18.548095703125,0.610595703125
0.0145,-21.531005859375,16.385986328125,4.254150390625
0.015,-22.411865234375,13.863525390625,7.617431640625
0.0155,-21.851318359375,9.939697265625,10.860595703125
0.016,-21.170654296875,5.455322265625,14.744384765625
0.0165,-20.369873046875,1.771728515625,17.587158203125
0.017,-18.528076171875,-2.752685546875,20.189697265625
0.0175,-16.165771484375,-6.436279296875,21.631103515625
0.018,-13.122802734375,-9.559326171875,21.791259765625
0.0185,-9.479248046875,-12.802490234375,21.631103515625
0.019,-4.154052734375,-16.646240234375,20.429931640625
0.0195,0.570556640625,-19.208740234375,18.548095703125
0.02,4.494384765625,-21.010498046875,16.626220703125
0.0205,7.937744140625,-22.091552734375,14.464111328125
0.021,11.381103515625,-21.531005859375,10.660400390625
0.0215,14.744384765625,-20.970458984375,6.856689453125
0.022,17.787353515625,-20.009521484375,2.932861328125
0.0225,20.429931640625,-17.767333984375,-1.951904296875
0.023,21.551025390625,-15.605224609375,-5.195068359375
0.0235,21.911376953125,-12.722412109375,-8.398193359375
0.024,21.470947265625,-9.038818359375,-11.561279296875
0.0245,20.670166015625,-4.514404296875,-15.364990234375
0.025,19.388916015625,-0.630615234375,-17.967529296875
0.0255,17.547119140625,3.493408203125,-20.209716796875
0.026,15.264892578125,7.056884765625,-21.490966796875
0.0265,11.461181640625,10.260009765625,-21.050537109375
0.027,7.697509765625,13.583251953125,-20.810302734375
0.0275,2.972900390625,17.106689453125,-19.809326171875
0.028,-2.152099609375,19.589111328125,-17.487060546875
0.0285,-5.435302734375,20.910400390625,-15.725341796875
0.029,-8.718505859375,21.711181640625,-13.443115234375
0.0295,-12.001708984375,21.110595703125,-9.759521484375
0.03,-15.485107421875,20.229736328125,-5.435302734375
0.0305,-18.167724609375,18.948486328125,-1.631591796875
0.031,-20.449951171875,16.786376953125,2.732666015625
0.0315,-21.290771484375,14.544189453125,5.895751953125
0.032,-21.130615234375,11.100830078125,9.098876953125
0.0325,-20.770263671875,7.417236328125,12.302001953125
0.033,-20.009521484375,3.173095703125,15.825439453125
0.0335,-18.327880859375,-1.071044921875,18.307861328125
0.034,-16.446044921875,-4.554443359375,19.989501953125
0.0345,-14.243896484375,-7.717529296875,21.110595703125
0.035,-10.239990234375,-10.920654296875,20.429931640625
0.0355,-5.955810546875,-14.364013671875,19.829345703125
0.036,-1.791748046875,-17.286865234375,18.708251953125
0.0365,3.012939453125,-19.529052734375,16.546142578125
0.037,5.935791015625,-20.489990234375,14.744384765625
0.0375,9.138916015625,-20.770263671875,11.981689453125
0.038,12.302001953125,-20.409912109375,8.618408203125
0.0385,15.705322265625,-19.489013671875,4.414306640625
0.039,18.227783203125,-17.807373046875,0.290283203125
0.0395,19.989501953125,-15.925537109375,-3.353271484375
0.04,20.750244140625,-13.603271484375,-6.356201171875
0.0405,20.229736328125,-10.079833984375,-9.439208984375
0.041,19.789306640625,-6.356201171875,-12.682373046875
0.0415,19.188720703125,-2.632568359375,-15.765380859375
0.042,17.427001953125,1.691650390625,-18.247802734375
0.0425,15.425048828125,4.894775390625,-19.489013671875
0.043,12.862548828125,7.977783203125,-20.169677734375
0.0435,9.098876953125,11.220947265625,-19.769287109375
0.044,4.494384765625,14.744384765625,-18.888427734375
0.0445,0.370361328125,17.346923828125,-17.607177734375
0.045,-3.713623046875,19.388916015625,-15.845458984375
0.0455,-6.676513671875,20.229736328125,-13.923583984375
0.046,-9.879638671875,19.989501953125,-10.640380859375
0.0465,-12.962646484375,19.669189453125,-7.357177734375
0.047,-16.045654296875,18.748291015625,-3.473388671875
0.0475,-18.447998046875,16.786376953125,0.970947265625
0.048,-19.729248046875,14.904541015625,3.973876953125
0.0485,-20.209716796875,12.302001953125,7.016845703125
0.049,-19.729248046875,8.698486328125,10.099853515625
0.0495,-19.168701171875,4.694580078125,13.423095703125
0.05,-18.287841796875,1.131103515625,16.225830078125
0.0505,-16.686279296875,-2.872802734375,18.548095703125
0.051,-14.524169921875,-5.835693359375,19.509033203125
0.0515,-11.521240234375,-8.838623046875,19.589111328125
0.052,-7.877685546875,-12.081787109375,19.388916015625
0.0525,-3.353271484375,-15.405029296875,18.347900390625
0.053,1.051025390625,-17.687255859375,16.586181640625
0.0535,4.254150390625,-19.248779296875,15.104736328125
0.054,7.297119140625,-19.929443359375,12.982666015625
0.0545,10.420166015625,-19.529052734375,9.539306640625
0.055,13.543212890625,-19.048583984375,6.015869140625
0.0555,16.385986328125,-18.007568359375,2.292236328125
0.056,18.588134765625,-16.045654296875,-1.911865234375
0.0565,19.428955078125,-14.123779296875,-4.554443359375
0.057,19.549072265625,-11.281005859375,-7.557373046875
0.0575,19.228759765625,-7.837646484375,-10.720458984375
0.058,18.628173828125,-3.913818359375,-13.923583984375
0.0585,17.346923828125,-0.190185546875,-16.406005859375
0.059,15.865478515625,3.373291015625,-18.407958984375
0.0595,13.583251953125,6.376220703125,-19.208740234375
0.06,10.099853515625,9.459228515625,-18.928466796875
0.0605,6.376220703125,12.702392578125,-18.648193359375
0.061,2.172119140625,15.745361328125,-17.687255859375
0.0615,-2.272216796875,17.947509765625,-15.765380859375
0.062,-4.994873046875,19.108642578125,-14.404052734375
0.0625,-7.997802734375,19.589111328125,-12.001708984375
0.063,-11.160888671875,19.148681640625,-8.558349609375
0.0635,-14.243896484375,18.508056640625,-4.954833984375
0.064,-16.806396484375,17.146728515625,-1.111083984375
0.0645,-18.768310546875,15.304931640625,2.692626953125
0.065,-19.368896484375,13.102783203125,5.415283203125
0.0655,-19.208740234375,9.819580078125,8.458251953125
0.066,-18.888427734375,6.256103515625,11.701416015625
0.0665,-18.327880859375,2.612548828125,14.824462890625
0.067,-16.686279296875,-1.351318359375,17.106689453125
0.0675,-15.124755859375,-4.394287109375,18.588134765625
0.068,-12.762451171875,-7.317138671875,19.308837890625
0.0685,-8.998779296875,-10.440185546875,18.828369140625
0.069,-5.114990234375,-13.603271484375,18.267822265625
0.0695,-0.830810546875,-16.406005859375,17.026611328125
0.07,3.173095703125,-18.447998046875,15.304931640625
0.0705,5.815673828125,-19.208740234375,13.583251953125
0.071,8.898681640625,-19.328857421875,10.820556640625
0.0715,12.181884765625,-18.928466796875,7.217041015625
0.072,15.104736328125,-18.167724609375,3.693603515625
0.0725,17.427001953125,-16.526123046875,-0.350341796875
0.073,19.068603515625,-14.844482421875,-3.553466796875
0.0735,19.388916015625,-12.322021484375,-6.396240234375
0.074,19.108642578125,-8.758544921875,-9.599365234375
0.0745,18.628173828125,-5.235107421875,-12.642333984375
0.075,17.907470703125,-1.551513671875,-15.565185546875
0.0755,16.145751953125,2.412353515625,-17.767333984375
0.076,14.223876953125,5.255126953125,-18.728271484375
0.0765,11.541259765625,8.258056640625,-19.128662109375
0.077,7.457275390625,11.661376953125,-18.648193359375
0.0775,3.533447265625,14.664306640625,-17.927490234375
0.078,-0.710693359375,17.106689453125,-16.365966796875
0.0785,-4.314208984375,18.948486328125,-14.844482421875
0.079,-7.036865234375,19.348876953125,-12.682373046875
0.0795,-10.079833984375,19.228759765625,-9.679443359375
0.08,-13.363037109375,18.748291015625,-6.035888671875
0.0805,-16.085693359375,17.587158203125,-2.272216796875
0.081,-18.207763671875,15.745361328125,1.691650390625
0.0815,-19.288818359375,13.823486328125,4.534423828125
0.082,-19.448974609375,11.020751953125,7.537353515625
0.0825,-19.048583984375,7.177001953125,10.940673828125
0.083,-18.488037109375,3.773681640625,13.823486328125
0.0835,-17.366943359375,0.010009765625,16.466064453125
0.084,-15.685302734375,-3.793701171875,18.548095703125
0.0845,-13.443115234375,-6.436279296875,19.028564453125
0.085,-10.400146484375,-9.359130859375,19.068603515625
0.0855,-6.276123046875,-12.882568359375,18.588134765625
0.086,-2.072021484375,-15.685302734375,17.427001953125
0.0865,1.971923828125,-17.687255859375,15.665283203125
0.087,5.054931640625,-19.168701171875,14.263916015625
0.0875,7.897705078125,-19.288818359375,11.741455078125
0.088,11.020751953125,-18.968505859375,8.338134765625
0.0885,14.063720703125,-18.568115234375,4.974853515625
0.089,16.706298828125,-17.086669921875,0.970947265625
0.0895,18.628173828125,-15.324951171875,-2.712646484375
0.09,19.188720703125,-13.122802734375,-5.395263671875
0.0905,19.148681640625,-10.119873046875,-8.318115234375
0.091,18.668212890625,-6.115966796875,-11.761474609375
0.0915,18.067626953125,-2.792724609375,-14.484130859375
0.092,16.626220703125,0.930908203125,-16.686279296875
0.0925,15.024658203125,4.294189453125,-18.568115234375
0.093,12.342041015625,7.056884765625,-18.728271484375
0.0935,8.978759765625,10.099853515625,-18.568115234375
0.094,5.094970703125,13.423095703125,-18.127685546875
0.0945,0.730712890625,16.185791015625,-16.766357421875
0.095,-3.032958984375,18.027587890625,-15.124755859375
0.0955,-5.755615234375,19.028564453125,-13.603271484375
0.096,-8.718505859375,19.148681640625,-10.880615234375
0.0965,-12.041748046875,18.548095703125,-7.076904296875
0.097,-14.724365234375,17.947509765625,-3.953857421875
0.0975,-17.126708984375,16.305908203125,0.050048828125
0.098,-18.848388671875,14.584228515625,3.493408203125
0.0985,-19.008544921875,12.021728515625,6.135986328125
0.099,-18.928466796875,8.858642578125,9.218994140625
0.0995,-18.528076171875,5.014892578125,12.622314453125
0.1,-17.687255859375,1.331298828125,15.425048828125
0.1005,-16.085693359375,-2.272216796875,17.427001953125
0.101,-14.484130859375,-5.195068359375,18.868408203125
0.1015,-11.561279296875,-8.117919921875,18.908447265625
0.102,-7.677490234375,-11.481201171875,18.508056640625
0.1025,-3.953857421875,-14.364013671875,17.947509765625
0.103,0.530517578125,-16.966552734375,16.345947265625
0.1035,3.973876953125,-18.688232421875,14.784423828125
0.104,6.696533203125,-19.168701171875,12.742431640625
0.1045,9.659423828125,-19.248779296875,9.979736328125
0.105,13.262939453125,-18.648193359375,5.895751953125
0.1055,15.865478515625,-17.687255859375,2.292236328125
0.106,17.947509765625,-15.965576171875,-1.391357421875
0.1065,19.348876953125,-14.123779296875,-4.514404296875
0.107,19.228759765625,-11.160888671875,-7.317138671875
0.1075,18.988525390625,-7.557373046875,-10.640380859375
0.108,18.588134765625,-4.114013671875,-13.723388671875
0.1085,17.427001953125,-0.150146484375,-16.486083984375
0.109,15.625244140625,3.493408203125,-18.287841796875
0.1095,13.503173828125,6.296142578125,-19.128662109375
0.11,10.460205078125,9.299072265625,-19.208740234375
0.1105,5.855712890625,13.062744140625,-18.528076171875
0.111,2.172119140625,15.665283203125,-17.647216796875
0.1115,-2.072021484375,17.947509765625,-15.965576171875
0.112,-5.395263671875,19.509033203125,-14.444091796875
0.1125,-8.197998046875,19.428955078125,-11.681396484375
0.113,-11.240966796875,19.348876953125,-8.718505859375
0.1135,-14.644287109375,18.708251953125,-4.834716796875
0.114,-17.286865234375,17.106689453125,-0.630615234375
0.1145,-18.968505859375,15.344970703125,2.852783203125
0.115,-19.889404296875,13.182861328125,5.855712890625
0.1155,-19.609130859375,9.939697265625,8.818603515625
0.116,-19.168701171875,5.735595703125,12.502197265625
0.1165,-18.568115234375,2.452392578125,15.184814453125
0.117,-17.126708984375,-1.591552734375,17.747314453125
0.1175,-15.244873046875,-5.034912109375,19.348876953125
0.118,-12.522216796875,-7.797607421875,19.509033203125
0.1185,-9.399169921875,-10.880615234375,19.549072265625
0.119,-4.594482421875,-14.524169921875,18.708251953125
0.1195,-0.310302734375,-17.086669921875,17.186767578125
0.12,3.333251953125,-18.848388671875,15.545166015625
0.1205,6.536376953125,-20.129638671875,13.783447265625
0.121,9.619384765625,-19.769287109375,10.540283203125
0.1215,12.822509765625,-19.288818359375,6.896728515625
0.122,15.785400390625,-18.608154296875,3.493408203125
0.1225,18.267822265625,-16.686279296875,-0.950927734375
0.123,19.629150390625,-14.844482421875,-4.073974609375
0.1235,19.909423828125,-12.201904296875,-7.036865234375
0.124,19.709228515625,-8.998779296875,-9.959716796875
0.1245,19.108642578125,-4.674560546875,-13.603271484375
0.125,18.067626953125,-1.151123046875,-16.165771484375
0.1255,16.506103515625,2.572509765625,-18.247802734375
0.126,14.584228515625,5.895751953125,-19.729248046875
0.1265,11.100830078125,8.858642578125,-19.288818359375
0.127,7.657470703125,12.021728515625,-19.208740234375
0.1275,3.373291015625,15.385009765625,-18.528076171875
0.128,-1.391357421875,17.947509765625,-16.566162109375
0.1285,-4.514404296875,19.268798828125,-15.004638671875
0.129,-7.637451171875,20.149658203125,-12.962646484375
0.1295,-10.680419921875,19.789306640625,-9.759521484375
0.13,-14.123779296875,19.028564453125,-5.595458984375
0.1305,-16.766357421875,18.067626953125,-2.072021484375
0.131,-18.928466796875,16.145751953125,2.011962890625
0.1315,-20.009521484375,14.103759765625,5.094970703125
0.132,-19.889404296875,10.900634765625,8.097900390625
0.1325,-19.729248046875,7.537353515625,11.220947265625
0.133,-19.208740234375,3.533447265625,14.784423828125
0.1335,-17.767333984375,-0.630615234375,17.346923828125
0.134,-16.005615234375,-3.993896484375,19.068603515625
0.1345,-14.043701171875,-7.116943359375,20.309814453125
0.135,-10.239990234375,-10.239990234375,19.789306640625
0.1355,-6.035888671875,-13.723388671875,19.228759765625
0.136,-1.951904296875,-16.646240234375,18.347900390625
0.1365,2.692626953125,-19.088623046875,16.345947265625
0.137,5.735595703125,-20.169677734375,14.624267578125
0.1375,8.898681640625,-20.449951171875,11.821533203125
0.138,12.101806640625,-20.169677734375,8.618408203125
0.1385,15.545166015625,-19.248779296875,4.334228515625
0.139,18.227783203125,-17.647216796875,0.170166015625
0.1395,19.989501953125,-15.805419921875,-3.473388671875
0.14,20.790283203125,-13.523193359375,-6.516357421875
0.1405,20.309814453125,-9.759521484375,-9.719482421875
0.141,19.789306640625,-5.995849609375,-12.962646484375
0.1415,19.228759765625,-2.272216796875,-16.085693359375
0.142,17.427001953125,2.092041015625,-18.648193359375
0.1425,15.344970703125,5.375244140625,-19.889404296875
0.143,12.782470703125,8.578369140625,-20.610107421875
0.1435,8.818603515625,11.861572265625,-20.209716796875
0.144,4.093994140625,15.425048828125,-19.208740234375
0.1445,-0.230224609375,18.027587890625,-17.887451171875
0.145,-4.354248046875,20.109619140625,-16.005615234375
0.1455,-7.397216796875,20.870361328125,-13.963623046875
0.146,-10.760498046875,20.630126953125,-10.440185546875
0.1465,-13.843505859375,20.149658203125,-6.996826171875
0.147,-17.006591796875,19.148681640625,-2.872802734375
0.1475,-19.489013671875,16.946533203125,1.731689453125
0.148,-20.690185546875,14.904541015625,4.934814453125
0.1485,-21.210693359375,12.221923828125,8.057861328125
0.149,-20.610107421875,8.258056640625,11.381103515625
0.1495,-19.849365234375,4.134033203125,14.704345703125
0.15,-18.888427734375,0.450439453125,17.467041015625
0.1505,-16.966552734375,-3.833740234375,19.829345703125
0.151,-14.684326171875,-6.916748046875,20.630126953125
0.1515,-11.441162109375,-9.999755859375,20.670166015625
0.152,-7.557373046875,-13.322998046875,20.309814453125
0.1525,-2.712646484375,-16.646240234375,19.028564453125
0.153,1.891845703125,-19.008544921875,17.026611328125
0.1535,5.295166015625,-20.489990234375,15.344970703125
0.154,8.378173828125,-21.090576171875,13.062744140625
0.1545,11.741455078125,-20.489990234375,9.259033203125
0.155,14.864501953125,-19.809326171875,5.535400390625
0.1555,17.787353515625,-18.608154296875,1.571533203125
0.156,19.989501953125,-16.406005859375,-2.872802734375
0.1565,20.750244140625,-14.243896484375,-5.755615234375
0.157,20.830322265625,-11.200927734375,-8.838623046875
0.1575,20.309814453125,-7.317138671875,-12.161865234375
0.158,19.509033203125,-3.313232421875,-15.364990234375
0.1585,18.067626953125,0.650634765625,-17.807373046875
0.159,16.305908203125,4.414306640625,-19.809326171875
0.1595,13.783447265625,7.457275390625,-20.489990234375
0.16,9.979736328125,10.700439453125,-20.089599609375
0.1605,6.095947265625,13.943603515625,-19.729248046875
0.161,1.571533203125,17.106689453125,-18.568115234375
0.1615,-3.113037109375,19.268798828125,-16.365966796875
0.162,-6.035888671875,20.429931640625,-14.684326171875
0.1625,-9.158935546875,20.790283203125,-12.161865234375
0.163,-12.522216796875,20.189697265625,-8.318115234375
0.1635,-15.645263671875,19.388916015625,-4.514404296875
0.164,-18.287841796875,17.787353515625,-0.350341796875
0.1645,-20.289794921875,15.745361328125,3.693603515625
0.165,-20.770263671875,13.343017578125,6.536376953125
0.1655,-20.530029296875,9.779541015625,9.899658203125
0.166,-20.009521484375,5.855712890625,13.182861328125
0.1665,-19.288818359375,1.971923828125,16.385986328125
0.167,-17.487060546875,-2.232177734375,18.708251953125
0.1675,-15.685302734375,-5.475341796875,20.229736328125
0.168,-13.082763671875,-8.598388671875,20.830322265625
0.1685,-8.878662109375,-12.041748046875,20.189697265625
0.169,-4.794677734375,-15.204833984375,19.509033203125
0.1695,-0.190185546875,-18.167724609375,18.067626953125
0.17,4.214111328125,-20.129638671875,16.025634765625
0.1705,7.056884765625,-20.770263671875,14.023681640625
0.171,10.380126953125,-20.890380859375,10.940673828125
0.1715,13.943603515625,-20.249755859375,6.896728515625
0.172,16.946533203125,-19.248779296875,3.012939453125
0.1725,19.348876953125,-17.366943359375,-1.311279296875
0.173,21.070556640625,-15.405029296875,-4.954833984375
0.1735,21.270751953125,-12.522216796875,-7.957763671875
0.174,20.870361328125,-8.598388671875,-11.481201171875
0.1745,20.189697265625,-4.754638671875,-14.604248046875
0.175,19.228759765625,-0.670654296875,-17.727294921875
0.1755,17.146728515625,3.653564453125,-19.889404296875
0.176,14.904541015625,6.736572265625,-20.890380859375
0.1765,11.821533203125,9.979736328125,-21.210693359375
0.177,7.177001953125,13.743408203125,-20.489990234375
0.1775,2.932861328125,16.826416015625,-19.529052734375
0.178,-1.871826171875,19.468994140625,-17.647216796875
0.1785,-5.835693359375,21.310791015625,-15.765380859375
0.179,-8.838623046875,21.551025390625,-13.202880859375
0.1795,-12.241943359375,21.390869140625,-9.759521484375
0.18,-15.845458984375,20.510009765625,-5.515380859375
0.1805,-18.728271484375,19.108642578125,-1.231201171875
0.181,-20.890380859375,16.866455078125,3.133056640625
