wavelength,x,y,z
0.0,-19.849365234375,13.302978515625,5.615478515625
0.0005,-20.009521484375,10.500244140625,8.578369140625
0.001,-19.729248046875,6.896728515625,11.901611328125
0.0015,-18.888427734375,2.692626953125,15.344970703125
0.002,-17.006591796875,-1.751708984375,17.787353515625
0.0025,-15.284912109375,-4.674560546875,19.148681640625
0.003,-13.282958984375,-7.477294921875,19.989501953125
0.0035,-10.119873046875,-10.320068359375,19.749267578125
0.004,-5.635498046875,-13.803466796875,18.948486328125
0.0045,-0.950927734375,-16.926513671875,17.427001953125
0.005,3.253173828125,-18.888427734375,15.505126953125
0.0055,5.895751953125,-19.448974609375,13.743408203125
0.006,8.738525390625,-19.889404296875,11.501220703125
0.0065,11.741455078125,-19.609130859375,8.418212890625
0.007,15.064697265625,-18.447998046875,4.053955078125
0.0075,17.587158203125,-16.566162109375,-0.350341796875
0.008,19.068603515625,-14.804443359375,-3.513427734375
0.0085,19.509033203125,-12.682373046875,-6.156005859375
0.009,19.509033203125,-9.799560546875,-9.038818359375
0.0095,19.028564453125,-5.755615234375,-12.442138671875
0.01,18.067626953125,-1.711669921875,-15.645263671875
0.0105,16.185791015625,2.372314453125,-17.767333984375
0.011,14.343994140625,5.054931640625,-18.648193359375
0.0115,12.181884765625,7.857666015625,-19.368896484375
0.012,8.618408203125,11.060791015625,-19.208740234375
0.0125,4.093994140625,14.384033203125,-18.127685546875
0.013,-0.510498046875,16.986572265625,-16.365966796875
0.0135,-3.993896484375,18.668212890625,-14.804443359375
0.014,-6.556396484375,19.228759765625,-12.962646484375
0.0145,-9.279052734375,19.388916015625,-10.600341796875
0.015,-12.522216796875,18.908447265625,-6.996826171875
0.0155,-15.565185546875,17.587158203125,-2.752685546875
0.016,-17.807373046875,15.585205078125,1.451416015625
0.0165,-18.728271484375,13.783447265625,4.093994140625
0.017,-19.248779296875,11.461181640625,6.896728515625
0.0175,-19.088623046875,8.258056640625,9.979736328125
0.018,-18.447998046875,4.254150390625,13.302978515625
0.0185,-17.166748046875,0.210205078125,16.145751953125
0.019,-15.525146484375,-3.393310546875,18.067626953125
0.0195,-13.563232421875,-5.915771484375,18.708251953125
0.02,-11.240966796875,-8.598388671875,19.148681640625
0.0205,-7.277099609375,-12.081787109375,18.748291015625
0.021,-2.592529296875,-15.244873046875,17.467041015625
0.0215,1.771728515625,-17.406982421875,15.505126953125
0.022,4.574462890625,-18.648193359375,14.143798828125
0.0225,7.257080078125,-19.208740234375,12.221923828125
0.023,10.099853515625,-19.168701171875,9.539306640625
0.0235,13.302978515625,-18.447998046875,5.695556640625
0.024,16.105712890625,-17.006591796875,1.411376953125
0.0245,18.147705078125,-15.124755859375,-2.392333984375
0.025,18.628173828125,-13.162841796875,-4.794677734375
0.0255,19.068603515625,-10.760498046875,-7.597412109375
0.026,18.748291015625,-6.996826171875,-11.040771484375
0.0265,18.027587890625,-3.153076171875,-14.163818359375
0.027,16.345947265625,0.930908203125,-16.526123046875
0.0275,14.904541015625,4.013916015625,-18.247802734375
0.028,12.702392578125,6.696533203125,-18.768310546875
0.0285,9.899658203125,9.579345703125,-18.888427734375
0.029,5.735595703125,13.022705078125,-18.327880859375
0.0295,0.930908203125,16.145751953125,-16.926513671875
0.03,-3.032958984375,18.067626953125,-15.084716796875
0.0305,-5.515380859375,18.868408203125,-13.563232421875
0.031,-8.318115234375,19.388916015625,-11.521240234375
0.0315,-11.521240234375,18.988525390625,-8.157958984375
0.032,-14.564208984375,17.987548828125,-4.234130859375
0.0325,-17.166748046875,16.265869140625,0.050048828125
0.033,-18.728271484375,14.544189453125,3.493408203125
0.0335,-19.088623046875,12.221923828125,6.015869140625
0.034,-19.408935546875,9.459228515625,9.018798828125
0.0345,-18.848388671875,5.375244140625,12.582275390625
0.035,-17.887451171875,1.291259765625,15.785400390625
0.0355,-16.005615234375,-2.592529296875,17.787353515625
0.036,-14.444091796875,-5.355224609375,18.948486328125
0.0365,-12.161865234375,-8.077880859375,19.509033203125
0.037,-8.318115234375,-11.441162109375,19.188720703125
0.0375,-4.154052734375,-14.524169921875,18.227783203125
0.038,0.730712890625,-17.326904296875,16.426025390625
0.0385,4.334228515625,-19.008544921875,14.744384765625
0.039,6.856689453125,-19.408935546875,12.782470703125
0.0395,9.579345703125,-19.889404296875,10.700439453125
0.04,13.182861328125,-19.168701171875,6.456298828125
0.0405,16.145751953125,-17.807373046875,2.292236328125
0.041,18.187744140625,-15.965576171875,-1.631591796875
0.0415,19.509033203125,-14.043701171875,-4.754638671875
0.042,19.669189453125,-11.481201171875,-7.397216796875
0.0425,19.589111328125,-8.037841796875,-10.800537109375
0.043,18.868408203125,-4.114013671875,-14.043701171875
0.0435,17.467041015625,0.330322265625,-16.966552734375
0.044,15.505126953125,3.933837890625,-18.688232421875
0.0445,13.423095703125,6.536376953125,-19.288818359375
0.045,11.140869140625,9.259033203125,-19.849365234375
0.0455,6.376220703125,13.102783203125,-19.088623046875
0.046,2.052001953125,16.025634765625,-17.807373046875
0.0465,-2.392333984375,18.227783203125,-15.885498046875
0.047,-5.635498046875,19.669189453125,-14.283935546875
0.0475,-8.197998046875,19.709228515625,-11.921630859375
0.048,-10.960693359375,19.709228515625,-9.479248046875
0.0485,-14.444091796875,18.868408203125,-5.155029296875
0.049,-17.326904296875,16.986572265625,-0.510498046875
0.0495,-18.928466796875,15.064697265625,3.052978515625
0.05,-19.609130859375,12.982666015625,5.775634765625
0.0505,-19.809326171875,10.380126953125,8.538330078125
0.051,-19.288818359375,6.135986328125,12.302001953125
0.0515,-18.407958984375,2.372314453125,15.144775390625
0.052,-16.806396484375,-1.791748046875,17.627197265625
0.0525,-15.004638671875,-5.074951171875,19.228759765625
0.053,-12.522216796875,-7.637451171875,19.348876953125
0.0535,-10.039794921875,-10.320068359375,19.709228515625
0.054,-5.195068359375,-14.083740234375,18.788330078125
0.0545,-0.350341796875,-16.966552734375,16.986572265625
0.055,3.333251953125,-18.568115234375,15.224853515625
0.0555,6.216064453125,-19.649169921875,13.623291015625
0.056,8.938720703125,-19.849365234375,11.220947265625
0.0565,12.021728515625,-19.408935546875,7.737548828125
0.057,15.064697265625,-18.528076171875,3.933837890625
0.0575,17.747314453125,-16.486083984375,-0.630615234375
0.058,19.148681640625,-14.604248046875,-3.793701171875
0.0585,19.388916015625,-12.281982421875,-6.356201171875
0.059,19.709228515625,-9.759521484375,-9.158935546875
0.0595,18.948486328125,-5.235107421875,-12.962646484375
0.06,17.787353515625,-1.191162109375,-15.845458984375
0.0605,16.025634765625,2.492431640625,-17.727294921875
0.061,14.384033203125,5.495361328125,-19.208740234375
0.0615,11.661376953125,8.218017578125,-19.248779296875
0.062,8.298095703125,11.421142578125,-19.168701171875
0.0625,3.973876953125,14.784423828125,-18.407958984375
0.063,-1.111083984375,17.507080078125,-16.365966796875
0.0635,-4.314208984375,18.908447265625,-14.764404296875
0.064,-6.996826171875,19.549072265625,-12.962646484375
0.0645,-9.559326171875,19.909423828125,-10.840576171875
0.065,-13.443115234375,18.988525390625,-6.276123046875
0.0655,-16.205810546875,17.747314453125,-2.312255859375
0.066,-18.407958984375,15.865478515625,1.691650390625
0.0665,-19.609130859375,13.983642578125,4.774658203125
0.067,-19.609130859375,11.260986328125,7.497314453125
0.0675,-19.729248046875,8.137939453125,10.740478515625
0.068,-19.088623046875,3.853759765625,14.343994140625
0.0685,-17.607177734375,-0.630615234375,17.306884765625
0.069,-15.685302734375,-3.993896484375,18.788330078125
0.0695,-13.923583984375,-6.796630859375,19.869384765625
0.07,-11.200927734375,-9.599365234375,20.109619140625
0.0705,-6.476318359375,-13.403076171875,19.308837890625
0.071,-2.112060546875,-16.406005859375,18.187744140625
0.0715,2.532470703125,-18.808349609375,16.145751953125
0.072,5.655517578125,-20.009521484375,14.424072265625
0.0725,8.458251953125,-20.249755859375,12.021728515625
0.073,11.341064453125,-20.409912109375,9.539306640625
0.0735,15.064697265625,-19.208740234375,4.814697265625
0.074,17.987548828125,-17.326904296875,0.130126953125
0.0745,19.509033203125,-15.445068359375,-3.353271484375
0.075,20.469970703125,-13.322998046875,-6.316162109375
0.0755,20.389892578125,-10.280029296875,-9.078857421875
0.076,19.869384765625,-6.276123046875,-12.802490234375
0.0765,19.068603515625,-2.312255859375,-16.005615234375
0.077,17.226806640625,2.252197265625,-18.648193359375
0.0775,15.064697265625,5.495361328125,-19.849365234375
0.078,12.662353515625,8.378173828125,-20.369873046875
0.0785,9.739501953125,11.381103515625,-20.570068359375
0.079,4.414306640625,15.344970703125,-19.368896484375
0.0795,-0.470458984375,18.187744140625,-17.607177734375
0.08,-4.314208984375,19.909423828125,-15.725341796875
0.0805,-7.357177734375,20.830322265625,-13.883544921875
0.081,-10.400146484375,20.670166015625,-10.920654296875
0.0815,-13.403076171875,20.349853515625,-7.717529296875
0.082,-16.806396484375,19.108642578125,-3.193115234375
0.0825,-19.529052734375,16.746337890625,1.931884765625
0.083,-20.489990234375,14.664306640625,4.934814453125
0.0835,-21.090576171875,12.181884765625,7.897705078125
0.084,-20.930419921875,9.058837890625,10.940673828125
0.0845,-20.049560546875,4.294189453125,14.824462890625
0.085,-18.728271484375,0.050048828125,17.747314453125
0.0855,-16.806396484375,-4.073974609375,19.909423828125
0.086,-14.684326171875,-7.116943359375,20.950439453125
0.0865,-11.561279296875,-10.119873046875,20.950439453125
0.087,-8.197998046875,-13.242919921875,20.870361328125
0.0875,-2.872802734375,-16.966552734375,19.428955078125
0.088,2.452392578125,-19.569091796875,16.946533203125
0.0885,5.615478515625,-20.690185546875,15.224853515625
0.089,8.658447265625,-21.490966796875,13.102783203125
0.0895,11.701416015625,-21.170654296875,10.019775390625
0.09,15.144775390625,-20.169677734375,5.695556640625
0.0905,18.187744140625,-18.688232421875,1.291259765625
0.091,20.469970703125,-16.406005859375,-3.353271484375
0.0915,21.110595703125,-14.083740234375,-6.115966796875
0.092,21.270751953125,-11.040771484375,-9.158935546875
0.0925,21.070556640625,-7.757568359375,-12.442138671875
0.093,20.029541015625,-3.072998046875,-16.125732421875
0.0935,18.067626953125,1.571533203125,-18.848388671875
0.094,16.145751953125,5.094970703125,-20.449951171875
0.0945,13.903564453125,8.137939453125,-21.290771484375
0.095,10.500244140625,11.220947265625,-21.050537109375
0.0955,6.095947265625,14.744384765625,-20.449951171875
0.096,1.211181640625,18.067626953125,-19.048583984375
0.0965,-3.953857421875,20.429931640625,-16.606201171875
0.097,-6.836669921875,21.150634765625,-14.684326171875
0.0975,-9.919677734375,21.711181640625,-12.281982421875
0.098,-13.002685546875,21.390869140625,-9.118896484375
0.0985,-16.566162109375,20.029541015625,-4.314208984375
0.099,-19.408935546875,18.027587890625,0.570556640625
0.0995,-21.290771484375,15.825439453125,4.494384765625
0.1,-21.651123046875,13.343017578125,7.457275390625
0.1005,-21.731201171875,9.939697265625,10.820556640625
0.101,-21.170654296875,5.895751953125,14.303955078125
0.1015,-20.169677734375,1.331298828125,17.867431640625
0.102,-17.927490234375,-3.433349609375,20.349853515625
0.1025,-15.765380859375,-6.596435546875,21.430908203125
0.103,-13.282958984375,-9.639404296875,22.151611328125
0.1035,-9.359130859375,-12.962646484375,21.791259765625
0.104,-4.394287109375,-16.646240234375,20.469970703125
0.1045,0.850830078125,-19.609130859375,18.588134765625
0.105,5.415283203125,-21.651123046875,16.305908203125
0.1055,8.258056640625,-21.971435546875,14.063720703125
0.106,11.541259765625,-22.171630859375,11.140869140625
0.1065,14.944580078125,-21.531005859375,7.337158203125
0.107,18.307861328125,-19.969482421875,2.412353515625
0.1075,20.950439453125,-17.567138671875,-2.592529296875
0.108,22.231689453125,-15.324951171875,-6.035888671875
0.1085,22.471923828125,-12.522216796875,-9.118896484375
0.109,22.231689453125,-8.718505859375,-12.642333984375
0.1095,21.150634765625,-4.274169921875,-16.045654296875
0.11,19.789306640625,0.450439453125,-19.288818359375
0.1105,17.346923828125,4.974853515625,-21.490966796875
0.111,14.824462890625,7.977783203125,-22.011474609375
0.1115,12.021728515625,11.100830078125,-22.451904296875
0.112,7.417236328125,14.784423828125,-21.851318359375
0.1125,2.292236328125,18.187744140625,-20.249755859375
0.113,-2.912841796875,20.750244140625,-17.927490234375
0.1135,-6.796630859375,22.351806640625,-15.845458984375
0.114,-9.759521484375,22.511962890625,-13.282958984375
0.1145,-12.962646484375,22.351806640625,-10.079833984375
0.115,-16.486083984375,21.310791015625,-5.715576171875
0.1155,-19.689208984375,19.388916015625,-0.630615234375
0.116,-21.811279296875,16.786376953125,4.093994140625
0.1165,-22.491943359375,14.303955078125,7.136962890625
0.117,-22.732177734375,11.301025390625,10.380126953125
0.1175,-22.171630859375,7.016845703125,14.143798828125
0.118,-20.890380859375,2.532470703125,17.427001953125
0.1185,-19.048583984375,-2.232177734375,20.229736328125
0.119,-16.766357421875,-6.276123046875,22.071533203125
0.1195,-14.043701171875,-9.158935546875,22.271728515625
0.12,-10.920654296875,-12.241943359375,22.391845703125
0.1205,-6.115966796875,-16.005615234375,21.470947265625
0.121,-0.670654296875,-19.208740234375,19.509033203125
0.1215,4.174072265625,-21.170654296875,16.986572265625
0.122,7.417236328125,-22.251708984375,15.024658203125
0.1225,10.540283203125,-22.451904296875,12.302001953125
0.123,13.783447265625,-21.891357421875,8.738525390625
0.1235,17.146728515625,-20.690185546875,4.334228515625
0.124,20.189697265625,-18.528076171875,-0.830810546875
0.1245,21.991455078125,-16.165771484375,-4.994873046875
0.125,22.191650390625,-13.483154296875,-7.837646484375
0.1255,22.391845703125,-10.520263671875,-11.000732421875
0.126,21.631103515625,-5.835693359375,-14.884521484375
0.1265,20.309814453125,-1.431396484375,-18.047607421875
0.127,18.067626953125,3.052978515625,-20.289794921875
0.1275,16.025634765625,6.656494140625,-21.811279296875
0.128,13.062744140625,9.619384765625,-21.971435546875
0.1285,9.339111328125,12.902587890625,-21.811279296875
0.129,4.614501953125,16.466064453125,-20.770263671875
0.1295,-0.990966796875,19.709228515625,-18.648193359375
0.13,-5.235107421875,21.390869140625,-16.365966796875
0.1305,-8.157958984375,21.951416015625,-14.203857421875
0.131,-11.281005859375,22.271728515625,-11.521240234375
0.1315,-14.844482421875,21.350830078125,-7.277099609375
0.132,-17.967529296875,19.909423828125,-2.872802734375
0.1325,-20.570068359375,17.627197265625,2.052001953125
0.133,-22.091552734375,15.344970703125,5.775634765625
0.1335,-22.091552734375,12.382080078125,8.738525390625
0.134,-22.211669921875,9.098876953125,12.181884765625
0.1345,-21.290771484375,4.374267578125,15.985595703125
0.135,-19.849365234375,-0.430419921875,19.228759765625
0.1355,-17.447021484375,-4.594482421875,21.110595703125
0.136,-15.364990234375,-7.717529296875,22.191650390625
0.1365,-12.442138671875,-10.840576171875,22.431884765625
0.137,-7.717529296875,-14.644287109375,21.751220703125
0.1375,-3.072998046875,-17.727294921875,20.429931640625
0.138,2.452392578125,-20.570068359375,18.027587890625
0.1385,6.336181640625,-22.091552734375,15.905517578125
0.139,9.259033203125,-22.171630859375,13.302978515625
0.1395,12.302001953125,-22.451904296875,10.740478515625
0.14,16.345947265625,-21.210693359375,5.695556640625
0.1405,19.348876953125,-19.368896484375,0.850830078125
0.141,21.470947265625,-17.086669921875,-3.553466796875
0.1415,22.592041015625,-14.764404296875,-6.916748046875
0.142,22.431884765625,-11.561279296875,-9.999755859375
0.1425,22.231689453125,-7.517333984375,-13.843505859375
0.143,21.110595703125,-3.153076171875,-17.166748046875
0.1435,19.228759765625,1.891845703125,-20.289794921875
0.144,16.786376953125,5.815673828125,-21.851318359375
0.1445,14.143798828125,8.818603515625,-22.291748046875
0.145,11.301025390625,11.941650390625,-22.692138671875
0.1455,5.615478515625,16.265869140625,-21.450927734375
0.146,0.730712890625,19.228759765625,-19.729248046875
0.1465,-4.194091796875,21.470947265625,-17.406982421875
0.147,-7.757568359375,22.752197265625,-15.324951171875
0.1475,-10.880615234375,22.471923828125,-12.201904296875
0.148,-13.923583984375,22.351806640625,-9.239013671875
0.1485,-17.687255859375,21.070556640625,-4.274169921875
0.149,-20.770263671875,18.628173828125,1.211181640625
0.1495,-22.251708984375,16.225830078125,5.014892578125
0.15,-22.932373046875,13.663330078125,8.258056640625
0.1505,-22.852294921875,10.420166015625,11.381103515625
0.151,-22.091552734375,5.415283203125,15.665283203125
0.1515,-20.770263671875,1.131103515625,18.628173828125
0.152,-18.648193359375,-3.633544921875,21.310791015625
0.1525,-16.325927734375,-7.397216796875,22.752197265625
0.153,-13.122802734375,-10.400146484375,22.632080078125
0.1535,-9.959716796875,-13.523193359375,22.792236328125
0.154,-4.194091796875,-17.607177734375,21.350830078125
0.1545,1.491455078125,-20.409912109375,18.948486328125
0.155,5.495361328125,-22.091552734375,16.666259765625
0.1555,8.818603515625,-23.012451171875,14.544189453125
0.156,12.101806640625,-22.772216796875,11.220947265625
0.1565,15.545166015625,-21.931396484375,7.096923828125
0.157,18.828369140625,-20.530029296875,2.532470703125
0.1575,21.631103515625,-18.007568359375,-2.792724609375
0.158,22.712158203125,-15.565185546875,-6.236083984375
0.1585,22.872314453125,-12.562255859375,-9.319091796875
0.159,22.872314453125,-9.479248046875,-12.482177734375
0.1595,21.711181640625,-4.154052734375,-16.646240234375
0.16,19.909423828125,0.570556640625,-19.609130859375
0.1605,17.747314453125,4.694580078125,-21.531005859375
0.161,15.425048828125,8.137939453125,-22.812255859375
0.1615,11.741455078125,11.381103515625,-22.451904296875
0.162,7.737548828125,14.864501953125,-22.091552734375
0.1625,2.612548828125,18.427978515625,-20.770263671875
0.163,-3.273193359375,21.190673828125,-17.967529296875
0.1635,-6.716552734375,22.271728515625,-15.805419921875
0.164,-9.919677734375,22.792236328125,-13.403076171875
0.1645,-12.882568359375,22.712158203125,-10.520263671875
0.165,-16.806396484375,21.270751953125,-5.355224609375
0.1655,-19.729248046875,19.468994140625,-0.670654296875
0.166,-21.931396484375,17.026611328125,3.893798828125
0.1665,-22.732177734375,14.544189453125,7.217041015625
0.167,-22.491943359375,11.100830078125,10.420166015625
0.1675,-22.371826171875,7.657470703125,13.743408203125
0.168,-21.290771484375,2.692626953125,17.587158203125
0.1685,-19.088623046875,-2.432373046875,20.469970703125
0.169,-16.766357421875,-6.075927734375,21.791259765625
0.1695,-14.484130859375,-9.158935546875,22.832275390625
0.17,-10.960693359375,-12.281982421875,22.552001953125
0.1705,-5.835693359375,-16.165771484375,21.470947265625
0.171,-0.910888671875,-19.248779296875,19.869384765625
0.1715,4.374267578125,-21.651123046875,17.306884765625
0.172,7.617431640625,-22.451904296875,15.064697265625
0.1725,10.860595703125,-22.572021484375,12.181884765625
0.173,13.823486328125,-22.451904296875,9.259033203125
0.1735,17.707275390625,-20.890380859375,3.933837890625
0.174,20.630126953125,-18.528076171875,-1.271240234375
0.1745,22.151611328125,-16.365966796875,-4.954833984375
0.175,22.832275390625,-13.803466796875,-8.077880859375
0.1755,22.471923828125,-10.320068359375,-11.240966796875
0.176,21.791259765625,-5.955810546875,-15.004638671875
0.1765,20.630126953125,-1.511474609375,-18.287841796875
0.177,18.347900390625,3.453369140625,-20.970458984375
0.1775,15.865478515625,6.776611328125,-21.851318359375
0.178,13.102783203125,9.939697265625,-22.371826171875
0.1785,9.619384765625,13.142822265625,-22.171630859375
0.179,3.973876953125,17.106689453125,-20.690185546875
0.1795,-1.231201171875,19.909423828125,-18.648193359375
0.18,-5.395263671875,21.751220703125,-16.526123046875
0.1805,-8.478271484375,22.431884765625,-14.323974609375
0.181,-11.721435546875,22.151611328125,-11.040771484375
