wavelength,x,y,z
0.0,22.48193359375,-9.06884765625,-12.51220703125
0.0005,21.76123046875,-4.62451171875,-16.31591796875
0.001,20.35986328125,-0.54052734375,-19.03857421875
0.0015,17.79736328125,3.62353515625,-20.64013671875
0.002,15.51513671875,7.22705078125,-21.96142578125
0.0025,12.11181640625,10.71044921875,-22.16162109375
0.003,7.74755859375,14.47412109375,-21.72119140625
0.0035,3.54345703125,17.47705078125,-20.64013671875
0.004,-1.58154296875,19.87939453125,-18.23779296875
0.0045,-5.70556640625,21.36083984375,-15.83544921875
0.005,-8.78857421875,21.52099609375,-13.15283203125
0.0055,-12.11181640625,21.76123046875,-10.27001953125
0.006,-15.99560546875,20.76025390625,-5.62548828125
0.0065,-18.47802734375,19.23876953125,-1.66162109375
0.007,-20.35986328125,16.87646484375,2.54248046875
0.0075,-21.76123046875,14.55419921875,6.26611328125
0.008,-21.76123046875,11.19091796875,9.62939453125
0.0085,-21.76123046875,7.38720703125,13.43310546875
0.009,-20.96044921875,3.46337890625,16.55615234375
0.0095,-19.23876953125,-0.82080078125,19.11865234375
0.01,-16.79638671875,-4.74462890625,20.64013671875
0.0105,-14.39404296875,-7.82763671875,21.44091796875
0.011,-11.39111328125,-11.15087890625,21.84130859375
0.0115,-6.38623046875,-15.19482421875,21.00048828125
0.012,-2.22216796875,-17.67724609375,19.51904296875
0.0125,2.30224609375,-19.55908203125,17.19677734375
0.013,6.10595703125,-21.00048828125,15.07470703125
0.0135,9.26904296875,-20.88037109375,12.03173828125
0.014,12.51220703125,-20.92041015625,9.02880859375
0.0145,16.03564453125,-20.15966796875,4.82470703125
0.015,18.51806640625,-18.23779296875,0.54052734375
0.0155,20.15966796875,-15.95556640625,-3.30322265625
0.016,21.08056640625,-13.59326171875,-6.54638671875
0.0165,21.20068359375,-10.51025390625,-9.90966796875
0.017,20.88037109375,-6.22607421875,-13.87353515625
0.0175,19.99951171875,-2.74267578125,-16.47607421875
0.018,18.15771484375,1.42138671875,-18.63818359375
0.0185,15.91552734375,5.22509765625,-20.35986328125
0.019,12.91259765625,8.30810546875,-20.56005859375
0.0195,10.14990234375,11.55126953125,-21.08056640625
0.02,5.10498046875,15.47509765625,-20.15966796875
0.0205,0.70068359375,17.87744140625,-18.31787109375
0.021,-3.26318359375,19.39892578125,-16.07568359375
0.0215,-6.70654296875,20.60009765625,-14.11376953125
0.022,-9.98974609375,20.47998046875,-10.99072265625
0.0225,-13.35302734375,20.11962890625,-7.38720703125
0.023,-16.31591796875,19.27880859375,-3.86376953125
0.0235,-18.55810546875,17.15673828125,0.54052734375
0.024,-20.07958984375,14.99462890625,4.14404296875
0.0245,-20.56005859375,12.19189453125,7.38720703125
0.025,-20.92041015625,9.26904296875,10.67041015625
0.0255,-20.39990234375,4.74462890625,14.75439453125
0.026,-19.15869140625,1.22119140625,17.15673828125
0.0265,-17.15673828125,-2.62255859375,18.91845703125
0.027,-15.23486328125,-6.18603515625,20.56005859375
0.0275,-11.87158203125,-9.38916015625,20.52001953125
0.028,-8.58837890625,-12.67236328125,20.64013671875
0.0285,-4.10400390625,-16.07568359375,19.71923828125
0.029,0.78076171875,-18.35791015625,17.39697265625
0.0295,4.34423828125,-19.67919921875,15.35498046875
0.03,7.66748046875,-20.35986328125,13.11279296875
0.0305,10.83056640625,-20.52001953125,10.27001953125
0.031,14.59423828125,-19.75927734375,5.82568359375
0.0315,17.03662109375,-18.55810546875,2.38232421875
0.032,18.99853515625,-16.51611328125,-1.66162109375
0.0325,20.35986328125,-14.43408203125,-5.10498046875
0.033,20.47998046875,-11.27099609375,-8.38818359375
0.0335,20.64013671875,-8.18798828125,-11.71142578125
0.034,20.19970703125,-3.98388671875,-15.35498046875
0.0345,18.43798828125,0.06005859375,-17.71728515625
0.035,16.27587890625,3.66357421875,-19.15869140625
0.0355,14.23388671875,7.02685546875,-20.47998046875
0.036,10.95068359375,10.22998046875,-20.60009765625
0.0365,6.46630859375,14.11376953125,-20.07958984375
0.037,2.62255859375,16.71630859375,-19.07861328125
0.0375,-2.06201171875,18.83837890625,-16.63623046875
0.038,-5.54541015625,20.03955078125,-14.59423828125
0.0385,-8.70849609375,20.19970703125,-11.87158203125
0.039,-11.75146484375,20.35986328125,-9.22900390625
0.0395,-15.43505859375,19.39892578125,-4.74462890625
0.04,-17.75732421875,17.63720703125,-0.74072265625
0.0405,-19.27880859375,15.55517578125,2.82275390625
0.041,-20.47998046875,13.31298828125,6.18603515625
0.0415,-20.39990234375,9.98974609375,9.46923828125
0.042,-20.43994140625,6.26611328125,13.19287109375
0.0425,-19.63916015625,2.74267578125,16.07568359375
0.043,-17.79736328125,-1.42138671875,18.31787109375
0.0435,-15.55517578125,-4.86474609375,19.59912109375
0.044,-13.11279296875,-8.06787109375,20.39990234375
0.0445,-10.18994140625,-11.23095703125,20.68017578125
0.045,-5.06494140625,-15.11474609375,19.63916015625
0.0455,-0.98095703125,-17.31689453125,18.03759765625
0.046,3.06298828125,-18.91845703125,15.99560546875
0.0465,6.42626953125,-20.11962890625,13.91357421875
0.047,9.74951171875,-19.99951171875,10.63037109375
0.0475,12.87255859375,-19.87939453125,7.62744140625
0.048,16.03564453125,-18.95849609375,3.74365234375
0.0485,18.27783203125,-16.91650390625,-0.62060546875
0.049,19.51904296875,-14.91455078125,-3.82373046875
0.0495,20.31982421875,-12.35205078125,-7.10693359375
0.05,20.39990234375,-9.42919921875,-10.31005859375
0.0505,19.91943359375,-4.98486328125,-14.11376953125
0.051,18.87841796875,-1.58154296875,-16.59619140625
0.0515,16.95654296875,2.42236328125,-18.59814453125
0.052,14.79443359375,5.82568359375,-19.87939453125
0.0525,11.63134765625,9.14892578125,-20.11962890625
0.053,8.62841796875,12.39208984375,-20.47998046875
0.0535,3.78369140625,15.99560546875,-19.23876953125
0.054,-0.90087890625,18.07763671875,-17.07666015625
0.0545,-4.30419921875,19.39892578125,-15.19482421875
0.055,-7.54736328125,20.23974609375,-12.99267578125
0.0555,-10.83056640625,20.11962890625,-9.86962890625
0.056,-14.27392578125,19.51904296875,-5.90576171875
0.0565,-16.87646484375,18.31787109375,-2.34228515625
0.057,-18.91845703125,16.03564453125,1.98193359375
0.0575,-19.95947265625,13.87353515625,5.06494140625
0.058,-20.31982421875,10.95068359375,8.54833984375
0.0585,-20.43994140625,7.78759765625,11.83154296875
0.059,-19.75927734375,3.54345703125,15.39501953125
0.0595,-18.07763671875,-0.30029296875,17.55712890625
0.06,-16.15576171875,-3.82373046875,19.23876953125
0.0605,-14.03369140625,-7.06689453125,20.35986328125
0.061,-10.63037109375,-10.31005859375,20.23974609375
0.0615,-6.78662109375,-13.75341796875,19.99951171875
0.062,-2.50244140625,-16.71630859375,18.71826171875
0.0625,2.26220703125,-18.55810546875,16.19580078125
0.063,5.34521484375,-19.51904296875,14.27392578125
0.0635,8.62841796875,-19.99951171875,11.75146484375
0.064,11.71142578125,-19.87939453125,8.70849609375
0.0645,15.11474609375,-18.99853515625,4.54443359375
0.065,17.31689453125,-17.43701171875,0.82080078125
0.0655,19.15869140625,-15.39501953125,-3.02294921875
0.066,19.79931640625,-13.15283203125,-5.90576171875
0.0665,19.99951171875,-9.90966796875,-9.26904296875
0.067,19.87939453125,-6.54638671875,-12.55224609375
0.0675,19.19873046875,-2.78271484375,-15.59521484375
0.068,17.15673828125,1.30126953125,-17.63720703125
0.0685,15.19482421875,4.50439453125,-18.91845703125
0.069,12.87255859375,7.70751953125,-19.87939453125
0.0695,9.54931640625,10.95068359375,-19.79931640625
0.07,5.10498046875,14.39404296875,-19.03857421875
0.0705,1.14111328125,16.79638671875,-17.63720703125
0.071,-3.14306640625,18.51806640625,-15.43505859375
0.0715,-5.98583984375,19.23876953125,-13.47314453125
0.072,-9.30908203125,19.47900390625,-10.63037109375
0.0725,-12.35205078125,19.23876953125,-7.58740234375
0.073,-15.39501953125,18.27783203125,-3.70361328125
0.0735,-17.47705078125,16.23583984375,0.30029296875
0.074,-18.79833984375,14.39404296875,3.58349609375
0.0745,-19.55908203125,11.99169921875,6.70654296875
0.075,-19.59912109375,8.82861328125,9.94970703125
0.0755,-19.23876953125,5.02490234375,13.39306640625
0.076,-18.39794921875,1.58154296875,15.99560546875
0.0765,-16.43603515625,-2.26220703125,17.95751953125
0.077,-14.43408203125,-5.26513671875,18.91845703125
0.0775,-11.91162109375,-8.54833984375,19.59912109375
0.078,-8.42822265625,-11.71142578125,19.59912109375
0.0785,-3.94384765625,-14.99462890625,18.51806640625
0.079,0.22021484375,-16.99658203125,16.63623046875
0.0795,3.86376953125,-18.55810546875,14.79443359375
0.08,6.70654296875,-19.23876953125,12.71240234375
0.0805,9.98974609375,-19.35888671875,9.78955078125
0.081,13.31298828125,-18.99853515625,6.26611328125
0.0815,15.99560546875,-17.95751953125,2.58251953125
0.082,17.99755859375,-15.75537109375,-1.38134765625
0.0825,19.03857421875,-13.87353515625,-4.26416015625
0.083,19.55908203125,-11.23095703125,-7.54736328125
0.0835,19.59912109375,-7.86767578125,-10.91064453125
0.084,19.03857421875,-4.14404296875,-14.15380859375
0.0845,17.67724609375,-0.58056640625,-16.43603515625
0.085,15.83544921875,3.22314453125,-18.31787109375
0.0855,13.67333984375,6.26611328125,-19.19873046875
0.086,10.71044921875,9.46923828125,-19.51904296875
0.0865,6.78662109375,13.07275390625,-19.35888671875
0.087,2.54248046875,15.91552734375,-18.07763671875
0.0875,-1.82177734375,17.71728515625,-15.83544921875
0.088,-4.94482421875,18.95849609375,-14.15380859375
0.0885,-8.10791015625,19.35888671875,-11.71142578125
0.089,-11.23095703125,19.23876953125,-8.66845703125
0.0895,-14.39404296875,18.63818359375,-4.98486328125
0.09,-16.83642578125,17.15673828125,-1.14111328125
0.0905,-18.67822265625,15.03466796875,2.82275390625
0.091,-19.39892578125,12.83251953125,5.66552734375
0.0915,-19.83935546875,9.90966796875,9.06884765625
0.092,-19.71923828125,6.18603515625,12.67236328125
0.0925,-18.91845703125,2.54248046875,15.55517578125
0.093,-17.03662109375,-1.30126953125,17.47705078125
0.0935,-15.39501953125,-4.70458984375,19.19873046875
0.094,-12.83251953125,-7.74755859375,19.79931640625
0.0945,-9.54931640625,-10.91064453125,19.87939453125
0.095,-5.38525390625,-14.39404296875,19.23876953125
0.0955,-0.94091796875,-16.95654296875,17.59716796875
0.096,3.26318359375,-18.55810546875,15.35498046875
0.0965,6.10595703125,-19.47900390625,13.43310546875
0.097,9.42919921875,-19.87939453125,10.75048828125
0.0975,12.91259765625,-19.35888671875,7.10693359375
0.098,15.75537109375,-18.51806640625,3.54345703125
0.0985,17.87744140625,-16.63623046875,-0.46044921875
0.099,19.51904296875,-14.63427734375,-4.10400390625
0.0995,19.87939453125,-11.99169921875,-7.02685546875
0.1,20.15966796875,-8.94873046875,-10.39013671875
0.1005,19.71923828125,-4.98486328125,-13.95361328125
0.101,18.63818359375,-1.42138671875,-16.63623046875
0.1015,16.51611328125,2.62255859375,-18.31787109375
0.102,14.55419921875,5.78564453125,-19.55908203125
0.1025,11.67138671875,9.02880859375,-20.03955078125
0.103,7.78759765625,12.55224609375,-19.83935546875
0.1035,3.82373046875,15.47509765625,-18.87841796875
0.104,-0.78076171875,17.71728515625,-16.91650390625
0.1045,-4.54443359375,19.23876953125,-14.79443359375
0.105,-7.42724609375,19.51904296875,-12.59228515625
0.1055,-10.51025390625,19.87939453125,-9.90966796875
0.106,-14.11376953125,19.23876953125,-5.78564453125
0.1065,-16.63623046875,17.95751953125,-2.14208984375
0.107,-18.47802734375,15.87548828125,1.78173828125
0.1075,-19.87939453125,13.91357421875,5.10498046875
0.108,-20.11962890625,10.91064453125,8.26806640625
0.1085,-20.15966796875,7.38720703125,11.83154296875
0.109,-19.55908203125,3.78369140625,14.99462890625
0.1095,-18.07763671875,-0.18017578125,17.43701171875
0.11,-15.99560546875,-3.94384765625,19.07861328125
0.1105,-13.83349609375,-6.78662109375,19.87939453125
0.111,-11.07080078125,-9.98974609375,20.39990234375
0.1115,-6.46630859375,-13.83349609375,19.79931640625
0.112,-2.42236328125,-16.43603515625,18.43798828125
0.1125,1.90185546875,-18.23779296875,16.31591796875
0.113,5.46533203125,-19.71923828125,14.39404296875
0.1135,8.42822265625,-19.83935546875,11.59130859375
0.114,11.59130859375,-19.87939453125,8.78857421875
0.1145,15.07470703125,-19.19873046875,4.82470703125
0.115,17.47705078125,-17.43701171875,0.78076171875
0.1155,19.15869140625,-15.39501953125,-3.02294921875
0.116,20.07958984375,-13.15283203125,-6.06591796875
0.1165,20.35986328125,-10.14990234375,-9.26904296875
0.117,20.11962890625,-6.10595703125,-13.23291015625
0.1175,19.27880859375,-2.70263671875,-15.71533203125
0.118,17.47705078125,1.26123046875,-17.91748046875
0.1185,15.39501953125,4.98486328125,-19.59912109375
0.119,12.55224609375,7.98779296875,-19.87939453125
0.1195,9.78955078125,11.15087890625,-20.35986328125
0.12,4.98486328125,15.03466796875,-19.51904296875
0.1205,0.58056640625,17.31689453125,-17.79736328125
0.121,-3.34326171875,18.87841796875,-15.51513671875
0.1215,-6.66650390625,19.99951171875,-13.75341796875
0.122,-9.86962890625,20.03955078125,-10.67041015625
0.1225,-13.15283203125,19.67919921875,-7.14697265625
0.123,-16.07568359375,18.83837890625,-3.62353515625
0.1235,-18.31787109375,16.75634765625,0.70068359375
0.124,-19.83935546875,14.59423828125,4.34423828125
0.1245,-20.31982421875,11.83154296875,7.42724609375
0.125,-20.60009765625,8.98876953125,10.75048828125
0.1255,-19.95947265625,4.50439453125,14.67431640625
0.126,-18.83837890625,0.94091796875,17.03662109375
0.1265,-16.79638671875,-2.78271484375,18.71826171875
0.127,-14.91455078125,-6.22607421875,20.31982421875
0.1275,-11.59130859375,-9.34912109375,20.23974609375
0.128,-8.18798828125,-12.67236328125,20.27978515625
0.1285,-3.82373046875,-15.99560546875,19.27880859375
0.129,0.98095703125,-18.19775390625,16.99658203125
0.1295,4.58447265625,-19.51904296875,14.91455078125
0.13,7.66748046875,-20.11962890625,12.75244140625
0.1305,10.83056640625,-20.23974609375,9.94970703125
0.131,14.55419921875,-19.39892578125,5.54541015625
0.1315,16.95654296875,-18.23779296875,2.10205078125
0.132,18.83837890625,-16.15576171875,-1.86181640625
0.1325,20.19970703125,-14.07373046875,-5.30517578125
0.133,20.19970703125,-10.95068359375,-8.34814453125
0.1335,20.43994140625,-7.90771484375,-11.79150390625
0.134,19.79931640625,-3.82373046875,-15.19482421875
0.1345,18.11767578125,0.22021484375,-17.51708984375
0.135,15.99560546875,3.78369140625,-18.91845703125
0.1355,13.95361328125,6.94677734375,-20.19970703125
0.136,10.79052734375,10.18994140625,-20.23974609375
0.1365,6.30615234375,13.87353515625,-19.75927734375
0.137,2.50244140625,16.47607421875,-18.67822265625
0.1375,-2.14208984375,18.51806640625,-16.47607421875
0.138,-5.58544921875,19.79931640625,-14.43408203125
0.1385,-8.66845703125,19.91943359375,-11.67138671875
0.139,-11.67138671875,20.15966796875,-9.06884765625
0.1395,-15.35498046875,19.19873046875,-4.62451171875
0.14,-17.59716796875,17.43701171875,-0.66064453125
0.1405,-19.15869140625,15.39501953125,2.90283203125
0.141,-20.27978515625,13.23291015625,6.06591796875
0.1415,-20.19970703125,9.94970703125,9.46923828125
0.142,-20.19970703125,6.14599609375,13.15283203125
0.1425,-19.47900390625,2.62255859375,15.99560546875
0.143,-17.59716796875,-1.54150390625,18.23779296875
0.1435,-15.39501953125,-4.98486328125,19.55908203125
0.144,-12.87255859375,-8.06787109375,20.31982421875
0.1445,-10.06982421875,-11.27099609375,20.60009765625
0.145,-4.86474609375,-15.23486328125,19.51904296875
0.1455,-0.78076171875,-17.51708984375,17.91748046875
0.146,3.26318359375,-19.15869140625,15.83544921875
0.1465,6.62646484375,-20.23974609375,13.83349609375
0.147,10.06982421875,-20.15966796875,10.55029296875
0.1475,13.15283203125,-20.07958984375,7.50732421875
0.148,16.43603515625,-19.07861328125,3.54345703125
0.1485,18.63818359375,-16.95654296875,-0.94091796875
0.149,19.91943359375,-14.87451171875,-4.10400390625
0.1495,20.64013671875,-12.43212890625,-7.46728515625
0.15,20.72021484375,-9.22900390625,-10.75048828125
0.1505,20.23974609375,-4.78466796875,-14.67431640625
0.151,19.11865234375,-1.26123046875,-17.07666015625
0.1515,17.15673828125,2.82275390625,-19.15869140625
0.152,14.87451171875,6.38623046875,-20.35986328125
0.1525,11.51123046875,9.66943359375,-20.56005859375
0.153,8.30810546875,12.99267578125,-20.96044921875
0.1535,3.34326171875,16.59619140625,-19.63916015625
0.154,-1.42138671875,18.75830078125,-17.27685546875
0.1545,-4.94482421875,20.03955078125,-15.31494140625
0.155,-8.18798828125,20.84033203125,-13.07275390625
0.1555,-11.67138671875,20.64013671875,-9.62939453125
0.156,-15.15478515625,19.91943359375,-5.66552734375
0.1565,-17.75732421875,18.71826171875,-1.90185546875
0.157,-19.87939453125,16.35595703125,2.70263671875
0.1575,-20.80029296875,14.03369140625,5.78564453125
0.158,-21.16064453125,10.87060546875,9.34912109375
0.1585,-21.12060546875,7.54736328125,12.71240234375
0.159,-20.31982421875,3.06298828125,16.35595703125
0.1595,-18.55810546875,-0.90087890625,18.55810546875
0.16,-16.55615234375,-4.62451171875,20.19970703125
0.1605,-14.11376953125,-7.94775390625,21.20068359375
0.161,-10.43017578125,-11.47119140625,21.04052734375
0.1615,-6.54638671875,-14.79443359375,20.76025390625
0.162,-1.86181640625,-17.75732421875,19.23876953125
0.1625,3.02294921875,-19.67919921875,16.59619140625
0.163,6.22607421875,-20.60009765625,14.55419921875
0.1635,9.62939453125,-21.00048828125,11.87158203125
0.164,12.87255859375,-20.60009765625,8.50830078125
0.1645,16.35595703125,-19.75927734375,4.14404296875
0.165,18.67822265625,-17.99755859375,0.30029296875
0.1655,20.47998046875,-15.79541015625,-3.82373046875
0.166,21.12060546875,-13.39306640625,-6.90673828125
0.1665,21.20068359375,-9.86962890625,-10.55029296875
0.167,21.00048828125,-6.26611328125,-13.95361328125
0.1675,20.03955078125,-2.30224609375,-17.07666015625
0.168,17.83740234375,1.98193359375,-19.27880859375
0.1685,15.67529296875,5.50537109375,-20.43994140625
0.169,13.11279296875,8.82861328125,-21.48095703125
0.1695,9.30908203125,12.35205078125,-21.12060546875
0.17,4.70458984375,15.95556640625,-20.19970703125
0.1705,0.42041015625,18.43798828125,-18.59814453125
0.171,-4.30419921875,20.23974609375,-16.07568359375
0.1715,-7.34716796875,20.80029296875,-13.95361328125
0.172,-10.83056640625,21.00048828125,-10.87060546875
0.1725,-14.07373046875,20.64013671875,-7.30712890625
0.173,-17.27685546875,19.43896484375,-3.06298828125
0.1735,-19.35888671875,17.23681640625,1.30126953125
0.174,-20.84033203125,15.03466796875,4.94482421875
0.1745,-21.44091796875,12.27197265625,8.26806640625
0.175,-21.40087890625,8.62841796875,11.87158203125
0.1755,-20.72021484375,4.54443359375,15.43505859375
0.176,-19.71923828125,0.66064453125,18.11767578125
0.1765,-17.31689453125,-3.70361328125,20.15966796875
0.177,-14.95458984375,-6.90673828125,21.04052734375
0.1775,-12.11181640625,-10.27001953125,21.68115234375
0.178,-8.02783203125,-13.95361328125,21.40087890625
0.1785,-3.22314453125,-17.19677734375,19.99951171875
0.179,1.34130859375,-19.27880859375,17.79736328125
0.1795,5.46533203125,-20.80029296875,15.67529296875
0.18,8.54833984375,-21.24072265625,13.07275390625
0.1805,12.07177734375,-21.28076171875,9.74951171875
0.181,15.59521484375,-20.72021484375,5.74560546875
0.1815,18.43798828125,-19.15869140625,1.58154296875
0.182,20.43994140625,-16.71630859375,-2.82275390625
0.1825,21.56103515625,-14.43408203125,-6.14599609375
0.183,21.96142578125,-11.31103515625,-9.62939453125
0.1835,21.72119140625,-7.38720703125,-13.39306640625
0.184,20.84033203125,-3.34326171875,-16.63623046875
0.1845,19.23876953125,0.70068359375,-19.11865234375
0.185,16.91650390625,5.06494140625,-21.00048828125
0.1855,14.03369140625,8.22802734375,-21.52099609375
0.186,10.87060546875,11.71142578125,-21.92138671875
0.1865,6.26611328125,15.63525390625,-21.36083984375
0.187,1.58154296875,18.55810546875,-19.79931640625
0.1875,-3.18310546875,20.35986328125,-17.15673828125
0.188,-6.78662109375,21.64111328125,-15.03466796875
0.1885,-10.22998046875,21.80126953125,-12.11181640625
0.189,-13.67333984375,21.48095703125,-8.46826171875
0.1895,-17.11669921875,20.56005859375,-4.38427734375
0.19,-19.71923828125,18.59814453125,0.18017578125
0.1905,-21.48095703125,16.03564453125,4.42431640625
0.191,-22.12158203125,13.39306640625,7.70751953125
0.1915,-22.44189453125,9.98974609375,11.39111328125
