wavelength,x,y,z
0.0,-3.813720703125,25.014404296875,-21.190673828125
0.0005,-8.858642578125,27.056396484375,-18.387939453125
0.001,-14.584228515625,26.856201171875,-12.582275390625
0.0015,-18.548095703125,26.415771484375,-8.418212890625
0.002,-21.390869140625,25.855224609375,-5.135009765625
0.0025,-24.634033203125,23.252685546875,0.750732421875
0.003,-26.395751953125,20.009521484375,5.755615234375
0.0035,-27.196533203125,15.525146484375,11.040771484375
0.004,-27.356689453125,10.840576171875,15.925537109375
0.0045,-26.075439453125,6.236083984375,19.248779296875
0.005,-25.114501953125,2.392333984375,22.131591796875
0.0055,-22.151611328125,-3.413330078125,24.854248046875
0.006,-19.589111328125,-8.458251953125,27.296630859375
0.0065,-13.663330078125,-14.103759765625,26.936279296875
0.007,-9.779541015625,-18.307861328125,27.216552734375
0.0075,-5.655517578125,-21.110595703125,25.895263671875
0.008,-0.090087890625,-24.073486328125,23.372802734375
0.0085,5.315185546875,-25.875244140625,19.889404296875
0.009,10.960693359375,-27.476806640625,15.965576171875
0.0095,16.045654296875,-27.076416015625,10.640380859375
0.01,19.529052734375,-26.315673828125,6.636474609375
0.0105,22.171630859375,-25.234619140625,3.072998046875
0.011,25.054443359375,-22.592041015625,-2.492431640625
0.0115,26.615966796875,-19.028564453125,-7.657470703125
0.012,26.615966796875,-13.783447265625,-12.902587890625
0.0125,26.816162109375,-9.859619140625,-16.986572265625
0.013,25.494873046875,-5.455322265625,-20.069580078125
0.0135,23.973388671875,-1.251220703125,-22.752197265625
0.014,21.090576171875,4.154052734375,-25.154541015625
0.0145,17.767333984375,9.759521484375,-27.356689453125
0.015,12.041748046875,14.884521484375,-26.676025390625
0.0155,8.278076171875,18.568115234375,-26.595947265625
0.016,4.314208984375,21.090576171875,-25.114501953125
0.0165,-1.571533203125,24.053466796875,-22.431884765625
0.017,-6.416259765625,25.494873046875,-19.148681640625
0.0175,-12.542236328125,26.535888671875,-14.263916015625
0.018,-16.506103515625,26.255615234375,-10.179931640625
0.0185,-19.989501953125,25.454833984375,-6.015869140625
0.019,-22.391845703125,23.773193359375,-2.052001953125
0.0195,-24.994384765625,21.130615234375,3.193115234375
0.02,-26.555908203125,17.326904296875,8.638427734375
0.0205,-26.035400390625,11.681396484375,13.683349609375
0.021,-26.315673828125,8.518310546875,17.246826171875
0.0215,-24.914306640625,4.114013671875,20.249755859375
0.022,-23.072509765625,-0.690673828125,23.092529296875
0.0225,-20.269775390625,-5.655517578125,25.174560546875
0.023,-15.985595703125,-11.861572265625,26.976318359375
0.0235,-10.940673828125,-16.065673828125,26.255615234375
0.024,-7.177001953125,-19.669189453125,25.975341796875
0.0245,-2.892822265625,-21.831298828125,23.853271484375
0.025,2.992919921875,-24.954345703125,21.250732421875
0.0255,8.037841796875,-26.155517578125,17.487060546875
0.026,14.323974609375,-26.716064453125,12.041748046875
0.0265,17.527099609375,-26.475830078125,8.838623046875
0.027,21.210693359375,-25.434814453125,4.154052734375
0.0275,23.492919921875,-23.352783203125,-0.250244140625
0.028,25.614990234375,-20.469970703125,-5.175048828125
0.0285,27.056396484375,-15.985595703125,-11.100830078125
0.029,26.055419921875,-10.420166015625,-15.665283203125
0.0295,26.295654296875,-7.537353515625,-18.868408203125
0.03,24.333740234375,-2.652587890625,-21.751220703125
0.0305,22.451904296875,2.512451171875,-24.874267578125
0.031,19.048583984375,7.437255859375,-26.355712890625
0.0315,14.123779296875,13.963623046875,-27.837158203125
0.032,9.359130859375,17.567138671875,-26.716064453125
0.0325,5.155029296875,21.250732421875,-26.195556640625
0.033,0.030029296875,23.292724609375,-23.192626953125
0.0335,-5.295166015625,25.975341796875,-20.790283203125
0.034,-10.940673828125,26.856201171875,-16.065673828125
0.0345,-16.426025390625,26.776123046875,-10.700439453125
0.035,-19.308837890625,26.495849609375,-7.737548828125
0.0355,-23.072509765625,24.654052734375,-2.252197265625
0.036,-25.234619140625,22.171630859375,2.432373046875
0.0365,-26.555908203125,18.768310546875,7.156982421875
0.037,-27.677001953125,13.803466796875,13.282958984375
0.0375,-26.275634765625,8.478271484375,17.246826171875
0.038,-26.235595703125,5.275146484375,20.369873046875
0.0385,-23.552978515625,-0.130126953125,23.052490234375
0.039,-21.711181640625,-5.014892578125,25.935302734375
0.0395,-17.226806640625,-10.219970703125,26.615966796875
0.04,-12.302001953125,-16.065673828125,27.536865234375
0.0405,-8.137939453125,-19.188720703125,26.335693359375
0.041,-3.253173828125,-22.672119140625,25.014404296875
0.0415,1.911865234375,-24.473876953125,21.771240234375
0.042,6.716552734375,-26.475830078125,19.208740234375
0.0425,12.842529296875,-27.036376953125,13.803466796875
0.043,17.366943359375,-26.355712890625,8.758544921875
0.0435,20.209716796875,-26.315673828125,6.035888671875
0.044,23.412841796875,-23.833251953125,0.390380859375
0.0445,25.494873046875,-21.310791015625,-4.214111328125
0.045,26.135498046875,-17.346923828125,-8.778564453125
0.0455,26.936279296875,-12.502197265625,-14.544189453125
0.046,25.614990234375,-7.817626953125,-17.907470703125
0.0465,25.254638671875,-4.294189453125,-21.070556640625
0.047,22.491943359375,0.870849609375,-23.352783203125
0.0475,20.690185546875,5.555419921875,-26.155517578125
0.048,15.485107421875,11.160888671875,-26.515869140625
0.0485,10.760498046875,16.205810546875,-26.796142578125
0.049,7.357177734375,19.128662109375,-26.235595703125
0.0495,1.711669921875,22.371826171875,-23.993408203125
0.05,-3.173095703125,24.333740234375,-21.110595703125
0.0505,-7.977783203125,25.935302734375,-18.027587890625
0.051,-13.943603515625,26.495849609375,-12.822509765625
0.0515,-17.747314453125,25.454833984375,-8.177978515625
0.052,-20.750244140625,25.454833984375,-5.215087890625
0.0525,-23.673095703125,22.732177734375,0.350341796875
0.053,-25.795166015625,20.009521484375,5.155029296875
0.0535,-25.915283203125,15.364990234375,9.959716796875
0.054,-26.635986328125,10.800537109375,15.244873046875
0.0545,-25.514892578125,6.596435546875,18.287841796875
0.055,-24.473876953125,2.272216796875,21.651123046875
0.0555,-21.791259765625,-2.852783203125,23.973388671875
0.056,-19.468994140625,-7.857666015625,26.575927734375
0.0565,-13.863525390625,-13.423095703125,26.375732421875
0.057,-9.339111328125,-17.747314453125,26.175537109375
0.0575,-6.095947265625,-20.510009765625,25.655029296875
0.058,0.150146484375,-23.633056640625,22.772216796875
0.0585,4.994873046875,-25.434814453125,19.849365234375
0.059,10.480224609375,-26.515869140625,15.565185546875
0.0595,15.685302734375,-26.876220703125,10.920654296875
0.06,19.168701171875,-25.675048828125,6.476318359375
0.0605,22.091552734375,-24.994384765625,2.872802734375
0.061,24.774169921875,-22.231689453125,-2.572509765625
0.0615,26.696044921875,-19.028564453125,-7.697509765625
0.062,26.135498046875,-13.503173828125,-12.662353515625
0.0625,26.615966796875,-9.619384765625,-17.106689453125
0.063,25.374755859375,-5.495361328125,-19.989501953125
0.0635,23.733154296875,-0.570556640625,-23.232666015625
0.064,20.890380859375,4.514404296875,-25.354736328125
0.0645,17.447021484375,10.119873046875,-27.476806640625
0.065,12.041748046875,15.164794921875,-26.956298828125
0.0655,7.557373046875,19.088623046875,-26.435791015625
0.066,3.913818359375,21.531005859375,-25.274658203125
0.0665,-2.452392578125,24.734130859375,-22.231689453125
0.067,-7.217041015625,26.215576171875,-19.068603515625
0.0675,-13.182861328125,26.615966796875,-13.703369140625
0.068,-17.226806640625,26.736083984375,-9.979736328125
0.0685,-20.670166015625,25.494873046875,-5.375244140625
0.069,-23.352783203125,23.853271484375,-1.171142578125
0.0695,-25.635009765625,20.890380859375,4.154052734375
0.07,-27.356689453125,17.166748046875,9.599365234375
0.0705,-26.235595703125,11.281005859375,14.364013671875
0.071,-26.555908203125,7.797607421875,18.207763671875
0.0715,-25.114501953125,3.673583984375,20.890380859375
0.072,-23.072509765625,-1.771728515625,24.093505859375
0.0725,-20.029541015625,-6.656494140625,25.895263671875
0.073,-15.505126953125,-12.662353515625,27.296630859375
0.0735,-10.860595703125,-16.786376953125,26.656005859375
0.074,-6.336181640625,-20.469970703125,25.855224609375
0.0745,-2.292236328125,-22.431884765625,23.893310546875
0.075,3.793701171875,-25.394775390625,21.010498046875
0.0755,8.878662109375,-26.756103515625,17.366943359375
0.076,14.764404296875,-26.515869140625,11.481201171875
0.0765,18.007568359375,-26.595947265625,8.478271484375
0.077,21.490966796875,-25.194580078125,3.713623046875
0.0775,23.973388671875,-23.232666015625,-0.770751953125
0.078,25.695068359375,-19.989501953125,-5.735595703125
0.0785,27.056396484375,-15.705322265625,-11.421142578125
0.079,25.775146484375,-10.260009765625,-15.585205078125
0.0795,25.935302734375,-6.856689453125,-19.148681640625
0.08,24.133544921875,-2.692626953125,-21.470947265625
0.0805,22.131591796875,2.672607421875,-24.794189453125
0.081,18.688232421875,7.677490234375,-26.235595703125
0.0815,13.523193359375,13.683349609375,-27.076416015625
0.082,9.639404296875,17.166748046875,-26.555908203125
0.0825,4.874755859375,20.810302734375,-25.474853515625
0.083,0.270263671875,22.812255859375,-22.912353515625
0.0835,-4.934814453125,25.254638671875,-20.349853515625
0.084,-10.740478515625,26.615966796875,-15.985595703125
0.0845,-15.665283203125,25.775146484375,-10.500244140625
0.085,-18.828369140625,25.975341796875,-7.697509765625
0.0855,-22.031494140625,24.053466796875,-2.652587890625
0.086,-24.593994140625,21.931396484375,2.031982421875
0.0865,-25.755126953125,18.407958984375,6.756591796875
0.087,-26.876220703125,13.563232421875,12.682373046875
0.0875,-25.675048828125,8.838623046875,16.325927734375
0.088,-25.554931640625,5.074951171875,19.889404296875
0.0885,-23.272705078125,0.510498046875,22.131591796875
0.089,-21.470947265625,-4.534423828125,25.254638671875
0.0895,-17.146728515625,-10.099853515625,26.335693359375
0.09,-11.981689453125,-15.425048828125,26.575927734375
0.0905,-8.658447265625,-18.508056640625,26.255615234375
0.091,-3.293212890625,-21.951416015625,24.413818359375
0.0915,1.751708984375,-24.113525390625,21.731201171875
0.092,6.316162109375,-25.915283203125,19.008544921875
0.0925,12.842529296875,-27.076416015625,13.843505859375
0.093,16.926513671875,-25.915283203125,8.838623046875
0.0935,20.209716796875,-26.115478515625,5.795654296875
0.094,23.172607421875,-23.633056640625,0.470458984375
0.0945,25.614990234375,-21.390869140625,-4.334228515625
0.095,26.175537109375,-17.186767578125,-9.018798828125
0.0955,26.896240234375,-12.181884765625,-14.744384765625
0.096,25.775146484375,-7.977783203125,-17.907470703125
0.0965,25.134521484375,-3.613525390625,-21.551025390625
0.097,22.531982421875,1.231201171875,-23.713134765625
0.0975,20.489990234375,5.995849609375,-26.515869140625
0.098,15.364990234375,12.041748046875,-27.196533203125
0.0985,10.119873046875,16.806396484375,-26.716064453125
0.099,7.036865234375,19.769287109375,-26.555908203125
0.0995,0.870849609375,23.092529296875,-23.753173828125
0.1,-4.174072265625,25.254638671875,-21.110595703125
0.1005,-8.738525390625,26.255615234375,-17.707275390625
0.101,-14.984619140625,27.096435546875,-12.542236328125
0.1015,-18.307861328125,25.614990234375,-7.817626953125
0.102,-21.831298828125,25.454833984375,-4.174072265625
0.1025,-24.353759765625,22.491943359375,1.231201171875
0.103,-26.555908203125,19.889404296875,5.995849609375
0.1035,-26.475830078125,14.964599609375,10.880615234375
0.104,-26.756103515625,10.119873046875,16.005615234375
0.1045,-25.755126953125,6.356201171875,18.848388671875
0.105,-24.273681640625,1.151123046875,22.451904296875
0.1055,-21.751220703125,-3.573486328125,24.493896484375
0.106,-19.068603515625,-8.338134765625,26.656005859375
0.1065,-13.743408203125,-14.103759765625,26.936279296875
0.107,-8.738525390625,-18.067626953125,25.935302734375
0.1075,-5.615478515625,-20.910400390625,25.614990234375
0.108,0.630615234375,-23.753173828125,22.411865234375
0.1085,5.395263671875,-25.795166015625,19.849365234375
0.109,10.520263671875,-26.195556640625,15.244873046875
0.1095,15.925537109375,-26.876220703125,10.760498046875
0.11,18.968505859375,-25.554931640625,6.476318359375
0.1105,22.371826171875,-24.593994140625,2.232177734375
0.111,24.493896484375,-21.791259765625,-2.692626953125
0.1115,26.415771484375,-18.908447265625,-7.497314453125
0.112,25.975341796875,-13.583251953125,-12.502197265625
0.1125,25.935302734375,-9.218994140625,-16.826416015625
0.113,25.294677734375,-5.815673828125,-19.549072265625
0.1135,23.212646484375,-0.410400390625,-22.912353515625
0.114,20.850341796875,4.314208984375,-25.114501953125
0.1145,17.206787109375,9.519287109375,-26.555908203125
0.115,12.362060546875,14.804443359375,-26.956298828125
0.1155,7.557373046875,18.407958984375,-25.715087890625
0.116,3.913818359375,21.250732421875,-24.954345703125
0.1165,-2.132080078125,24.053466796875,-21.831298828125
0.117,-6.896728515625,26.095458984375,-19.268798828125
0.1175,-12.502197265625,25.935302734375,-13.743408203125
0.118,-16.786376953125,26.415771484375,-10.059814453125
0.1185,-19.989501953125,25.334716796875,-5.895751953125
0.119,-23.272705078125,23.653076171875,-0.970947265625
0.1195,-25.394775390625,20.690185546875,4.033935546875
0.12,-27.036376953125,17.166748046875,9.279052734375
0.1205,-26.395751953125,11.561279296875,14.163818359375
0.121,-26.115478515625,7.437255859375,18.047607421875
0.1215,-25.234619140625,3.833740234375,20.770263671875
0.122,-22.912353515625,-2.052001953125,24.293701171875
0.1225,-20.189697265625,-6.976806640625,26.415771484375
0.123,-15.224853515625,-12.742431640625,27.056396484375
0.1235,-11.060791015625,-17.106689453125,27.256591796875
0.124,-6.095947265625,-20.670166015625,25.815185546875
0.1245,-1.651611328125,-23.192626953125,24.053466796875
0.125,4.354248046875,-25.795166015625,20.850341796875
0.1255,9.839599609375,-27.677001953125,17.366943359375
0.126,15.405029296875,-26.916259765625,11.240966796875
0.1265,18.928466796875,-27.036376953125,7.997802734375
0.127,22.091552734375,-25.554931640625,3.433349609375
0.1275,25.174560546875,-23.392822265625,-1.811767578125
0.128,26.736083984375,-19.829345703125,-6.976806640625
0.1285,27.897216796875,-15.425048828125,-12.542236328125
0.129,26.816162109375,-10.179931640625,-16.826416015625
0.1295,26.175537109375,-6.095947265625,-20.309814453125
0.13,24.533935546875,-1.931884765625,-22.672119140625
0.1305,22.171630859375,3.913818359375,-25.995361328125
0.131,18.608154296875,9.279052734375,-27.757080078125
0.1315,12.882568359375,15.044677734375,-27.677001953125
0.132,9.279052734375,18.568115234375,-27.556884765625
0.1325,4.033935546875,21.931396484375,-25.715087890625
0.133,-1.010986328125,24.333740234375,-23.192626953125
0.1335,-6.256103515625,26.295654296875,-20.149658203125
0.134,-12.342041015625,27.897216796875,-15.705322265625
0.1345,-16.866455078125,26.535888671875,-10.099853515625
0.135,-20.109619140625,26.455810546875,-6.896728515625
0.1355,-22.952392578125,24.373779296875,-2.092041015625
0.136,-25.875244140625,22.091552734375,3.193115234375
0.1365,-26.876220703125,18.127685546875,8.077880859375
0.137,-27.516845703125,13.042724609375,13.763427734375
0.1375,-26.676025390625,8.718505859375,17.326904296875
0.138,-25.594970703125,4.314208984375,20.730224609375
0.1385,-23.633056640625,0.070068359375,22.932373046875
0.139,-21.390869140625,-5.175048828125,25.815185546875
0.1395,-17.146728515625,-11.060791015625,27.416748046875
0.14,-11.541259765625,-15.985595703125,26.656005859375
0.1405,-8.458251953125,-19.108642578125,26.656005859375
0.141,-3.173095703125,-22.071533203125,24.373779296875
0.1415,2.112060546875,-24.674072265625,21.891357421875
0.142,6.716552734375,-25.995361328125,18.688232421875
0.1425,13.403076171875,-27.476806640625,13.683349609375
0.143,17.006591796875,-26.115478515625,8.878662109375
0.1435,20.489990234375,-25.995361328125,5.395263671875
0.144,22.892333984375,-23.673095703125,0.790771484375
0.1445,25.695068359375,-21.390869140625,-4.374267578125
0.145,26.415771484375,-17.066650390625,-9.419189453125
0.1455,26.495849609375,-11.901611328125,-14.744384765625
0.146,26.135498046875,-8.378173828125,-17.827392578125
0.1465,24.654052734375,-3.533447265625,-21.230712890625
0.147,22.652099609375,0.990966796875,-23.633056640625
0.1475,20.329833984375,5.835693359375,-26.035400390625
0.148,15.485107421875,12.201904296875,-27.516845703125
0.1485,10.119873046875,16.406005859375,-26.315673828125
0.149,7.116943359375,19.689208984375,-26.515869140625
0.1495,1.271240234375,22.451904296875,-23.512939453125
0.15,-3.893798828125,25.214599609375,-21.270751953125
0.1505,-8.578369140625,25.975341796875,-17.507080078125
0.151,-14.904541015625,27.056396484375,-12.502197265625
0.1515,-17.987548828125,25.775146484375,-8.298095703125
0.152,-21.751220703125,25.174560546875,-4.013916015625
0.1525,-23.993408203125,22.491943359375,0.830810546875
0.153,-26.475830078125,19.889404296875,5.915771484375
0.1535,-26.876220703125,15.004638671875,11.200927734375
0.154,-26.595947265625,9.879638671875,16.125732421875
0.1545,-26.235595703125,6.716552734375,19.008544921875
0.155,-24.113525390625,0.990966796875,22.491943359375
0.1555,-22.071533203125,-3.653564453125,24.974365234375
0.156,-18.908447265625,-8.658447265625,26.776123046875
0.1565,-13.943603515625,-14.824462890625,27.897216796875
0.157,-8.658447265625,-18.468017578125,26.215576171875
0.1575,-5.215087890625,-21.631103515625,26.015380859375
0.158,1.111083984375,-24.273681640625,22.451904296875
0.1585,6.035888671875,-26.756103515625,20.169677734375
0.159,11.281005859375,-26.876220703125,15.204833984375
0.1595,16.926513671875,-27.556884765625,10.400146484375
0.16,19.729248046875,-26.275634765625,6.436279296875
0.1605,23.412841796875,-24.914306640625,1.391357421875
0.161,25.454833984375,-22.071533203125,-3.453369140625
0.1615,27.336669921875,-18.868408203125,-8.618408203125
0.162,27.176513671875,-13.423095703125,-13.783447265625
0.1625,26.495849609375,-8.578369140625,-18.027587890625
0.163,26.015380859375,-5.375244140625,-20.790283203125
0.1635,23.372802734375,0.710693359375,-24.033447265625
0.164,21.170654296875,5.355224609375,-26.395751953125
0.1645,16.766357421875,10.720458984375,-27.316650390625
0.165,12.161865234375,16.165771484375,-28.077392578125
0.1655,7.076904296875,19.489013671875,-26.275634765625
0.166,2.952880859375,22.531982421875,-25.274658203125
0.1665,-3.173095703125,25.014404296875,-21.751220703125
0.167,-7.977783203125,27.096435546875,-19.188720703125
0.1675,-13.463134765625,26.615966796875,-13.423095703125
0.168,-17.907470703125,26.776123046875,-9.339111328125
0.1685,-20.710205078125,25.695068359375,-5.695556640625
0.169,-24.073486328125,23.572998046875,-0.170166015625
0.1695,-25.955322265625,20.489990234375,4.794677734375
0.17,-27.236572265625,16.726318359375,9.839599609375
0.1705,-26.916259765625,11.601318359375,14.764404296875
0.171,-25.955322265625,6.996826171875,18.407958984375
0.1715,-25.314697265625,3.553466796875,21.130615234375
0.172,-22.471923828125,-2.412353515625,24.213623046875
0.1725,-20.189697265625,-7.096923828125,26.575927734375
0.173,-14.864501953125,-12.542236328125,26.575927734375
0.1735,-10.900634765625,-17.066650390625,27.056396484375
0.174,-6.336181640625,-20.109619140625,25.574951171875
0.1745,-1.571533203125,-22.872314453125,23.613037109375
0.175,4.033935546875,-25.034423828125,20.369873046875
0.1755,9.198974609375,-26.956298828125,17.286865234375
0.176,14.564208984375,-26.355712890625,11.521240234375
0.1765,18.247802734375,-26.235595703125,7.797607421875
0.177,20.890380859375,-25.314697265625,4.274169921875
0.1775,24.053466796875,-22.912353515625,-1.251220703125
0.178,25.775146484375,-19.629150390625,-6.135986328125
0.1785,26.495849609375,-15.144775390625,-11.341064453125
0.179,26.375732421875,-10.740478515625,-15.665283203125
0.1795,25.294677734375,-6.296142578125,-19.068603515625
0.18,24.173583984375,-2.652587890625,-21.551025390625
0.1805,21.531005859375,3.032958984375,-24.553955078125
