wavelength,x,y,z
0.0,-7.817626953125,8.197998046875,-0.650634765625
0.0005,-8.498291015625,7.076904296875,1.151123046875
0.001,-9.138916015625,5.755615234375,3.113037109375
0.0015,-9.459228515625,4.634521484375,4.514404296875
0.002,-9.259033203125,3.072998046875,6.035888671875
0.0025,-8.498291015625,1.271240234375,7.076904296875
0.003,-7.697509765625,-0.610595703125,7.997802734375
0.0035,-6.256103515625,-2.572509765625,8.638427734375
0.004,-4.814697265625,-4.654541015625,9.279052734375
0.0045,-3.052978515625,-6.135986328125,8.998779296875
0.005,-1.411376953125,-7.537353515625,8.758544921875
0.0055,0.230224609375,-8.378173828125,8.037841796875
0.006,1.951904296875,-9.218994140625,7.197021484375
0.0065,3.873779296875,-9.899658203125,5.955810546875
0.007,5.395263671875,-10.179931640625,4.834716796875
0.0075,6.596435546875,-9.739501953125,3.273193359375
0.008,7.557373046875,-9.098876953125,1.791748046875
0.0085,8.278076171875,-8.298095703125,0.150146484375
0.009,8.798583984375,-7.056884765625,-1.651611328125
0.0095,9.439208984375,-5.855712890625,-3.533447265625
0.01,9.439208984375,-4.574462890625,-4.814697265625
0.0105,9.118896484375,-2.852783203125,-6.256103515625
0.011,8.197998046875,-1.131103515625,-7.056884765625
0.0115,7.397216796875,0.630615234375,-7.977783203125
0.012,5.995849609375,2.632568359375,-8.538330078125
0.0125,4.674560546875,4.474365234375,-9.098876953125
0.013,2.912841796875,5.835693359375,-8.658447265625
0.0135,1.431396484375,7.076904296875,-8.418212890625
0.014,-0.130126953125,7.917724609375,-7.777587890625
0.0145,-1.771728515625,8.638427734375,-6.896728515625
0.015,-3.653564453125,9.319091796875,-5.775634765625
0.0155,-4.934814453125,9.319091796875,-4.614501953125
0.016,-6.135986328125,9.038818359375,-3.133056640625
0.0165,-6.936767578125,8.318115234375,-1.651611328125
0.017,-7.737548828125,7.477294921875,0.030029296875
0.0175,-8.298095703125,6.356201171875,1.631591796875
0.018,-8.978759765625,5.435302734375,3.273193359375
0.0185,-8.938720703125,4.194091796875,4.514404296875
0.019,-8.578369140625,2.472412109375,5.915771484375
0.0195,-7.817626953125,0.830810546875,6.796630859375
0.02,-6.936767578125,-0.970947265625,7.717529296875
0.0205,-5.695556640625,-2.852783203125,8.358154296875
0.021,-4.334228515625,-4.494384765625,8.598388671875
0.0215,-2.732666015625,-5.815673828125,8.358154296875
0.022,-1.331298828125,-6.936767578125,8.077880859375
0.0225,0.190185546875,-7.857666015625,7.557373046875
0.023,1.791748046875,-8.578369140625,6.716552734375
0.0235,3.393310546875,-9.339111328125,5.915771484375
0.024,4.514404296875,-9.259033203125,4.794677734375
0.0245,5.795654296875,-9.098876953125,3.353271484375
0.025,6.556396484375,-8.378173828125,1.951904296875
0.0255,7.437255859375,-7.697509765625,0.350341796875
0.026,8.077880859375,-6.776611328125,-1.211181640625
0.0265,8.718505859375,-6.055908203125,-2.652587890625
0.027,8.718505859375,-4.734619140625,-3.973876953125
0.0275,8.278076171875,-3.133056640625,-5.135009765625
0.028,7.717529296875,-1.491455078125,-6.256103515625
0.0285,6.956787109375,0.190185546875,-7.056884765625
0.029,6.035888671875,1.951904296875,-7.937744140625
0.0295,4.834716796875,3.393310546875,-8.137939453125
0.03,3.313232421875,4.874755859375,-8.137939453125
0.0305,1.991943359375,5.915771484375,-7.897705078125
0.031,0.510498046875,7.036865234375,-7.497314453125
0.0315,-1.010986328125,7.837646484375,-6.856689453125
0.032,-2.492431640625,8.558349609375,-6.135986328125
0.0325,-3.693603515625,8.478271484375,-4.974853515625
0.033,-4.974853515625,8.358154296875,-3.653564453125
0.0335,-6.015869140625,7.837646484375,-2.212158203125
0.034,-6.856689453125,7.237060546875,-0.650634765625
0.0345,-7.817626953125,6.676513671875,0.950927734375
0.035,-8.378173828125,5.875732421875,2.272216796875
0.0355,-8.378173828125,4.434326171875,3.793701171875
0.036,-8.017822265625,2.872802734375,5.034912109375
0.0365,-7.537353515625,1.111083984375,6.276123046875
0.037,-6.696533203125,-0.610595703125,7.116943359375
0.0375,-5.735595703125,-2.412353515625,7.957763671875
0.038,-4.414306640625,-3.813720703125,7.997802734375
0.0385,-2.932861328125,-5.375244140625,8.117919921875
0.039,-1.571533203125,-6.496337890625,7.837646484375
0.0395,0.070068359375,-7.537353515625,7.397216796875
0.04,1.671630859375,-8.458251953125,6.716552734375
0.0405,3.072998046875,-8.978759765625,5.875732421875
0.041,4.394287109375,-8.978759765625,4.634521484375
0.0415,5.475341796875,-8.658447265625,3.193115234375
0.042,6.596435546875,-8.137939453125,1.671630859375
0.0425,7.397216796875,-7.377197265625,0.190185546875
0.043,8.318115234375,-6.736572265625,-1.531494140625
0.0435,8.638427734375,-5.695556640625,-2.852783203125
0.044,8.518310546875,-4.093994140625,-4.414306640625
0.0445,7.997802734375,-2.452392578125,-5.535400390625
0.045,7.397216796875,-0.690673828125,-6.696533203125
0.0455,6.516357421875,1.151123046875,-7.577392578125
0.046,5.395263671875,2.872802734375,-8.177978515625
0.0465,3.873779296875,4.354248046875,-8.137939453125
0.047,2.432373046875,5.755615234375,-8.097900390625
0.0475,0.950927734375,6.876708984375,-7.737548828125
0.048,-0.770751953125,7.757568359375,-7.056884765625
0.0485,-2.532470703125,8.718505859375,-6.296142578125
0.049,-3.813720703125,8.758544921875,-5.135009765625
0.0495,-5.255126953125,8.678466796875,-3.693603515625
0.05,-6.216064453125,8.157958984375,-2.212158203125
0.0505,-7.177001953125,7.437255859375,-0.570556640625
0.051,-7.977783203125,6.556396484375,1.271240234375
0.0515,-8.738525390625,5.635498046875,2.912841796875
0.052,-8.738525390625,4.274169921875,4.314208984375
0.0525,-8.378173828125,2.512451171875,5.715576171875
0.053,-7.697509765625,0.790771484375,6.756591796875
0.0535,-6.776611328125,-1.131103515625,7.677490234375
0.054,-5.495361328125,-3.213134765625,8.518310546875
0.0545,-3.893798828125,-4.854736328125,8.558349609375
0.055,-2.332275390625,-6.376220703125,8.478271484375
0.0555,-0.810791015625,-7.417236328125,8.037841796875
0.056,0.910888671875,-8.378173828125,7.397216796875
0.0565,2.752685546875,-9.259033203125,6.396240234375
0.057,4.514404296875,-9.859619140625,5.315185546875
0.0575,5.715576171875,-9.499267578125,3.833740234375
0.058,6.956787109375,-9.138916015625,2.312255859375
0.0585,7.717529296875,-8.258056640625,0.710693359375
0.059,8.398193359375,-7.217041015625,-1.091064453125
0.0595,9.158935546875,-6.095947265625,-3.052978515625
0.06,9.359130859375,-4.734619140625,-4.574462890625
0.0605,9.078857421875,-3.133056640625,-5.935791015625
0.061,8.318115234375,-1.331298828125,-6.936767578125
0.0615,7.477294921875,0.470458984375,-7.817626953125
0.062,6.196044921875,2.432373046875,-8.538330078125
0.0625,4.754638671875,4.594482421875,-9.218994140625
0.063,2.872802734375,6.035888671875,-8.778564453125
0.0635,1.311279296875,7.397216796875,-8.618408203125
0.064,-0.370361328125,8.238037109375,-7.857666015625
0.0645,-2.092041015625,8.958740234375,-6.936767578125
0.065,-4.134033203125,9.679443359375,-5.735595703125
0.0655,-5.735595703125,9.759521484375,-4.374267578125
0.066,-6.896728515625,9.279052734375,-2.652587890625
0.0665,-7.857666015625,8.638427734375,-1.091064453125
0.067,-8.498291015625,7.557373046875,0.710693359375
0.0675,-9.058837890625,6.316162109375,2.552490234375
0.068,-9.779541015625,4.994873046875,4.594482421875
0.0685,-9.419189453125,3.313232421875,5.955810546875
0.069,-8.978759765625,1.551513671875,7.317138671875
0.0695,-7.977783203125,-0.330322265625,8.077880859375
0.07,-6.856689453125,-2.212158203125,8.838623046875
0.0705,-5.255126953125,-4.374267578125,9.479248046875
0.071,-3.493408203125,-6.376220703125,9.639404296875
0.0715,-1.531494140625,-7.617431640625,8.918701171875
0.072,0.030029296875,-8.738525390625,8.598388671875
0.0725,1.911865234375,-9.539306640625,7.517333984375
0.073,3.713623046875,-10.099853515625,6.276123046875
0.0735,5.755615234375,-10.860595703125,4.994873046875
0.074,7.036865234375,-10.300048828125,3.393310546875
0.0745,8.157958984375,-9.699462890625,1.751708984375
0.075,8.798583984375,-8.658447265625,0.070068359375
0.0755,9.279052734375,-7.377197265625,-1.771728515625
0.076,9.759521484375,-6.015869140625,-3.613525390625
0.0765,10.199951171875,-4.574462890625,-5.575439453125
0.077,9.479248046875,-2.732666015625,-6.736572265625
0.0775,8.918701171875,-1.010986328125,-7.817626953125
0.078,7.677490234375,0.870849609375,-8.458251953125
0.0785,6.436279296875,2.672607421875,-9.058837890625
0.079,4.834716796875,4.914794921875,-9.659423828125
0.0795,2.952880859375,6.556396484375,-9.419189453125
0.08,1.191162109375,7.717529296875,-8.818603515625
0.0805,-0.410400390625,8.638427734375,-8.258056640625
0.081,-2.212158203125,9.239013671875,-7.136962890625
0.0815,-3.973876953125,9.719482421875,-5.975830078125
0.082,-5.855712890625,10.320068359375,-4.654541015625
0.0825,-6.896728515625,9.519287109375,-2.852783203125
0.083,-8.017822265625,9.038818359375,-1.331298828125
0.0835,-8.578369140625,7.837646484375,0.430419921875
0.084,-8.978759765625,6.676513671875,2.072021484375
0.0845,-9.579345703125,5.355224609375,3.993896484375
0.085,-9.699462890625,3.873779296875,5.595458984375
0.0855,-9.018798828125,2.112060546875,6.716552734375
0.086,-8.378173828125,0.390380859375,7.837646484375
0.0865,-7.177001953125,-1.451416015625,8.398193359375
0.087,-5.935791015625,-3.213134765625,8.998779296875
0.0875,-4.294189453125,-5.415283203125,9.479248046875
0.088,-2.412353515625,-6.736572265625,8.958740234375
0.0885,-0.890869140625,-8.017822265625,8.638427734375
0.089,0.750732421875,-8.778564453125,7.837646484375
0.0895,2.432373046875,-9.419189453125,6.796630859375
0.09,4.194091796875,-9.939697265625,5.755615234375
0.0905,5.755615234375,-10.219970703125,4.514404296875
0.091,6.756591796875,-9.459228515625,2.872802734375
0.0915,7.757568359375,-8.938720703125,1.351318359375
0.092,8.278076171875,-7.817626953125,-0.290283203125
0.0925,8.798583984375,-6.816650390625,-1.851806640625
0.093,9.439208984375,-5.615478515625,-3.693603515625
0.0935,9.279052734375,-4.174072265625,-5.054931640625
0.094,8.798583984375,-2.572509765625,-6.135986328125
0.0945,7.997802734375,-0.970947265625,-7.056884765625
0.095,7.076904296875,0.750732421875,-7.777587890625
0.0955,6.035888671875,2.512451171875,-8.458251953125
0.096,4.514404296875,4.434326171875,-8.898681640625
0.0965,2.832763671875,5.635498046875,-8.378173828125
0.097,1.351318359375,6.876708984375,-8.258056640625
0.0975,-0.130126953125,7.637451171875,-7.617431640625
0.098,-1.611572265625,8.398193359375,-6.816650390625
0.0985,-3.373291015625,9.158935546875,-5.895751953125
0.099,-4.694580078125,9.118896484375,-4.614501953125
0.0995,-5.815673828125,8.718505859375,-3.173095703125
0.1,-6.736572265625,8.197998046875,-1.731689453125
0.1005,-7.417236328125,7.357177734375,-0.210205078125
0.101,-8.177978515625,6.476318359375,1.431396484375
0.1015,-8.818603515625,5.475341796875,3.153076171875
0.102,-8.658447265625,4.114013671875,4.354248046875
0.1025,-8.378173828125,2.512451171875,5.755615234375
0.103,-7.657470703125,0.910888671875,6.556396484375
0.1035,-6.856689453125,-0.810791015625,7.477294921875
0.104,-5.735595703125,-2.652587890625,8.157958984375
0.1045,-4.294189453125,-4.414306640625,8.398193359375
0.105,-2.772705078125,-5.695556640625,8.197998046875
0.1055,-1.331298828125,-6.936767578125,7.997802734375
0.106,0.190185546875,-7.697509765625,7.437255859375
0.1065,1.671630859375,-8.498291015625,6.756591796875
0.107,3.393310546875,-9.299072265625,5.915771484375
0.1075,4.514404296875,-9.098876953125,4.554443359375
0.108,5.795654296875,-8.938720703125,3.233154296875
0.1085,6.636474609375,-8.298095703125,1.791748046875
0.109,7.437255859375,-7.537353515625,0.270263671875
0.1095,8.238037109375,-6.736572265625,-1.371337890625
0.11,8.798583984375,-5.735595703125,-2.972900390625
0.1105,8.638427734375,-4.374267578125,-4.174072265625
0.111,8.278076171875,-2.732666015625,-5.495361328125
0.1115,7.557373046875,-1.131103515625,-6.416259765625
0.112,6.876708984375,0.590576171875,-7.377197265625
0.1125,5.755615234375,2.432373046875,-8.177978515625
0.113,4.274169921875,3.913818359375,-8.177978515625
0.1135,2.832763671875,5.315185546875,-8.177978515625
0.114,1.431396484375,6.476318359375,-7.897705078125
0.1145,-0.130126953125,7.397216796875,-7.337158203125
0.115,-1.731689453125,8.318115234375,-6.696533203125
0.1155,-3.333251953125,8.878662109375,-5.655517578125
0.116,-4.534423828125,8.638427734375,-4.294189453125
0.1165,-5.855712890625,8.438232421875,-2.852783203125
0.117,-6.656494140625,7.717529296875,-1.331298828125
0.1175,-7.577392578125,7.036865234375,0.310302734375
0.118,-8.378173828125,6.196044921875,2.031982421875
0.1185,-8.698486328125,4.994873046875,3.553466796875
0.119,-8.458251953125,3.473388671875,4.874755859375
0.1195,-8.017822265625,1.751708984375,6.156005859375
0.12,-7.257080078125,0.030029296875,7.076904296875
0.1205,-6.376220703125,-1.851806640625,7.997802734375
0.121,-4.934814453125,-3.893798828125,8.558349609375
0.1215,-3.253173828125,-5.295166015625,8.318115234375
0.122,-1.811767578125,-6.696533203125,8.318115234375
0.1225,-0.250244140625,-7.697509765625,7.757568359375
0.123,1.431396484375,-8.538330078125,6.996826171875
0.1235,3.273193359375,-9.459228515625,6.115966796875
0.124,4.794677734375,-9.619384765625,4.874755859375
0.1245,5.995849609375,-9.218994140625,3.353271484375
0.125,7.076904296875,-8.738525390625,1.791748046875
0.1255,7.757568359375,-7.737548828125,0.150146484375
0.126,8.558349609375,-6.896728515625,-1.571533203125
0.1265,9.319091796875,-5.735595703125,-3.533447265625
0.127,9.078857421875,-4.134033203125,-4.854736328125
0.1275,8.678466796875,-2.532470703125,-6.135986328125
0.128,7.837646484375,-0.730712890625,-7.096923828125
0.1285,6.916748046875,1.031005859375,-7.937744140625
0.129,5.715576171875,3.072998046875,-8.738525390625
0.1295,3.993896484375,4.994873046875,-8.978759765625
0.13,2.272216796875,6.316162109375,-8.538330078125
0.1305,0.750732421875,7.557373046875,-8.298095703125
0.131,-1.091064453125,8.398193359375,-7.337158203125
0.1315,-2.772705078125,9.078857421875,-6.376220703125
0.132,-4.694580078125,9.799560546875,-5.255126953125
0.1325,-6.015869140625,9.399169921875,-3.653564453125
0.133,-7.177001953125,8.958740234375,-2.052001953125
0.1335,-8.017822265625,8.077880859375,-0.370361328125
0.134,-8.618408203125,6.876708984375,1.471435546875
0.1345,-9.259033203125,5.795654296875,3.233154296875
0.135,-9.699462890625,4.354248046875,5.155029296875
0.1355,-9.058837890625,2.512451171875,6.396240234375
0.136,-8.578369140625,0.750732421875,7.677490234375
0.1365,-7.257080078125,-1.291259765625,8.318115234375
0.137,-6.055908203125,-3.213134765625,8.998779296875
0.1375,-4.414306640625,-5.375244140625,9.479248046875
0.138,-2.532470703125,-6.936767578125,9.239013671875
0.1385,-0.810791015625,-8.057861328125,8.678466796875
0.139,0.910888671875,-9.058837890625,8.037841796875
0.1395,2.952880859375,-9.699462890625,6.676513671875
0.14,4.634521484375,-10.219970703125,5.635498046875
0.1405,6.356201171875,-10.620361328125,4.354248046875
0.141,7.357177734375,-9.739501953125,2.552490234375
0.1415,8.358154296875,-9.138916015625,0.950927734375
0.142,8.918701171875,-7.857666015625,-0.930908203125
0.1425,9.359130859375,-6.576416015625,-2.652587890625
0.143,9.879638671875,-5.375244140625,-4.414306640625
0.1435,9.839599609375,-3.693603515625,-6.095947265625
0.144,8.958740234375,-1.891845703125,-7.056884765625
0.1445,8.238037109375,-0.250244140625,-8.097900390625
0.145,6.756591796875,1.791748046875,-8.578369140625
0.1455,5.635498046875,3.553466796875,-9.259033203125
0.146,3.953857421875,5.635498046875,-9.459228515625
0.1465,2.072021484375,6.916748046875,-8.898681640625
0.147,0.510498046875,7.997802734375,-8.378173828125
0.1475,-1.251220703125,8.798583984375,-7.577392578125
0.148,-3.052978515625,9.279052734375,-6.376220703125
0.1485,-4.614501953125,9.799560546875,-5.295166015625
0.149,-6.095947265625,9.799560546875,-3.933837890625
0.1495,-7.056884765625,8.998779296875,-2.252197265625
0.15,-7.977783203125,8.358154296875,-0.690673828125
0.1505,-8.378173828125,7.076904296875,1.111083984375
0.151,-8.938720703125,6.075927734375,2.632568359375
0.1515,-9.459228515625,4.874755859375,4.354248046875
0.152,-9.138916015625,3.193115234375,5.755615234375
0.1525,-8.458251953125,1.591552734375,6.796630859375
0.153,-7.697509765625,-0.290283203125,7.717529296875
0.1535,-6.376220703125,-1.931884765625,8.278076171875
0.154,-5.295166015625,-3.773681640625,8.798583984375
0.1545,-3.653564453125,-5.535400390625,8.998779296875
0.155,-1.931884765625,-6.696533203125,8.438232421875
0.1555,-0.490478515625,-7.817626953125,8.117919921875
0.156,1.191162109375,-8.498291015625,7.197021484375
0.1565,2.712646484375,-9.138916015625,6.356201171875
0.157,4.274169921875,-9.739501953125,5.435302734375
0.1575,5.515380859375,-9.499267578125,4.033935546875
0.158,6.476318359375,-8.978759765625,2.632568359375
0.1585,7.397216796875,-8.298095703125,1.111083984375
0.159,7.877685546875,-7.297119140625,-0.490478515625
0.1595,8.638427734375,-6.536376953125,-1.931884765625
0.16,9.078857421875,-5.415283203125,-3.613525390625
0.1605,8.798583984375,-3.853759765625,-4.814697265625
0.161,8.318115234375,-2.372314453125,-5.935791015625
0.1615,7.477294921875,-0.610595703125,-6.696533203125
0.162,6.716552734375,0.950927734375,-7.617431640625
0.1625,5.715576171875,2.672607421875,-8.298095703125
0.163,4.154052734375,4.314208984375,-8.338134765625
0.1635,2.712646484375,5.475341796875,-8.137939453125
0.164,1.311279296875,6.716552734375,-7.937744140625
0.1645,-0.250244140625,7.397216796875,-7.257080078125
0.165,-1.731689453125,8.278076171875,-6.616455078125
0.1655,-3.253173828125,8.838623046875,-5.735595703125
0.166,-4.454345703125,8.598388671875,-4.294189453125
0.1665,-5.615478515625,8.398193359375,-3.012939453125
0.167,-6.536376953125,7.717529296875,-1.491455078125
0.1675,-7.337158203125,7.076904296875,0.070068359375
0.168,-8.177978515625,6.396240234375,1.591552734375
0.1685,-8.458251953125,5.235107421875,3.153076171875
0.169,-8.338134765625,3.713623046875,4.434326171875
0.1695,-8.097900390625,2.072021484375,5.795654296875
0.17,-7.217041015625,0.470458984375,6.636474609375
0.1705,-6.536376953125,-1.251220703125,7.637451171875
0.171,-5.295166015625,-3.052978515625,8.197998046875
0.1715,-3.813720703125,-4.534423828125,8.157958984375
0.172,-2.412353515625,-5.895751953125,8.077880859375
0.1725,-0.970947265625,-7.056884765625,7.797607421875
0.173,0.630615234375,-7.857666015625,7.156982421875
0.1735,2.232177734375,-8.818603515625,6.556396484375
0.174,3.713623046875,-9.218994140625,5.475341796875
0.1745,4.954833984375,-8.938720703125,4.033935546875
0.175,6.115966796875,-8.658447265625,2.592529296875
0.1755,6.916748046875,-7.857666015625,1.111083984375
0.176,7.837646484375,-7.217041015625,-0.490478515625
0.1765,8.718505859375,-6.336181640625,-2.092041015625
0.177,8.718505859375,-5.094970703125,-3.653564453125
0.1775,8.358154296875,-3.613525390625,-4.814697265625
0.178,7.957763671875,-1.851806640625,-6.095947265625
0.1785,7.116943359375,-0.250244140625,-6.936767578125
0.179,6.396240234375,1.591552734375,-7.937744140625
0.1795,4.994873046875,3.433349609375,-8.298095703125
0.18,3.393310546875,4.834716796875,-8.177978515625
0.1805,1.951904296875,6.156005859375,-8.057861328125
0.181,0.470458984375,7.116943359375,-7.577392578125
0.1815,-1.171142578125,7.997802734375,-6.896728515625
0.182,-2.812744140625,8.798583984375,-6.095947265625
0.1825,-4.254150390625,8.838623046875,-4.774658203125
0.183,-5.415283203125,8.558349609375,-3.333251953125
0.1835,-6.576416015625,8.117919921875,-1.771728515625
0.184,-7.257080078125,7.156982421875,-0.130126953125
0.1845,-8.137939453125,6.516357421875,1.471435546875
0.185,-8.818603515625,5.355224609375,3.233154296875
0.1855,-8.618408203125,3.753662109375,4.634521484375
0.186,-8.298095703125,2.192138671875,5.955810546875
0.1865,-7.497314453125,0.390380859375,6.916748046875
0.187,-6.536376953125,-1.411376953125,7.757568359375
0.1875,-5.375244140625,-3.293212890625,8.478271484375
0.188,-3.773681640625,-5.054931640625,8.598388671875
