wavelength,x,y,z
0.0,25.755126953125,-7.197021484375,-18.728271484375
0.0005,24.513916015625,-2.592529296875,-22.091552734375
0.001,21.791259765625,2.292236328125,-24.213623046875
0.0015,19.669189453125,7.056884765625,-26.736083984375
0.002,14.424072265625,12.942626953125,-27.256591796875
0.0025,9.579345703125,17.226806640625,-26.535888671875
0.003,6.336181640625,20.149658203125,-26.255615234375
0.0035,0.010009765625,23.152587890625,-23.052490234375
0.004,-4.754638671875,25.234619140625,-20.489990234375
0.0045,-9.639404296875,25.995361328125,-16.606201171875
0.005,-15.244873046875,26.876220703125,-12.041748046875
0.0055,-18.528076171875,25.274658203125,-7.357177734375
0.006,-21.731201171875,24.714111328125,-3.713623046875
0.0065,-24.093505859375,21.711181640625,1.691650390625
0.007,-26.255615234375,19.188720703125,6.336181640625
0.0075,-25.975341796875,14.063720703125,11.260986328125
0.008,-26.255615234375,9.659423828125,15.905517578125
0.0085,-25.454833984375,6.055908203125,18.748291015625
0.009,-23.452880859375,0.770751953125,22.031494140625
0.0095,-21.130615234375,-3.833740234375,24.113525390625
0.01,-18.087646484375,-8.838623046875,26.155517578125
0.0105,-13.202880859375,-14.283935546875,26.595947265625
0.011,-8.438232421875,-17.967529296875,25.474853515625
0.0115,-5.195068359375,-20.690185546875,24.954345703125
0.012,1.010986328125,-23.412841796875,21.631103515625
0.0125,5.495361328125,-25.534912109375,19.348876953125
0.013,11.020751953125,-25.695068359375,14.183837890625
0.0135,15.665283203125,-26.415771484375,10.420166015625
0.014,18.868408203125,-25.174560546875,6.135986328125
0.0145,21.951416015625,-23.773193359375,1.771728515625
0.015,24.113525390625,-21.010498046875,-3.193115234375
0.0155,26.035400390625,-18.087646484375,-7.997802734375
0.016,25.594970703125,-12.802490234375,-12.842529296875
0.0165,25.474853515625,-8.718505859375,-16.926513671875
0.017,24.794189453125,-5.435302734375,-19.569091796875
0.0175,22.431884765625,0.290283203125,-22.892333984375
0.018,20.229736328125,4.774658203125,-25.014404296875
0.0185,16.105712890625,10.380126953125,-26.375732421875
0.019,11.941650390625,15.064697265625,-26.856201171875
0.0195,7.056884765625,18.708251953125,-25.574951171875
0.02,3.093017578125,21.310791015625,-24.213623046875
0.0205,-2.872802734375,24.033447265625,-21.090576171875
0.021,-7.717529296875,26.115478515625,-18.528076171875
0.0215,-13.322998046875,25.715087890625,-12.802490234375
0.022,-17.126708984375,25.995361328125,-9.399169921875
0.0225,-20.209716796875,24.874267578125,-5.275146484375
0.023,-23.412841796875,22.872314453125,-0.150146484375
0.0235,-25.294677734375,19.789306640625,4.814697265625
0.024,-26.856201171875,15.985595703125,10.139892578125
0.0245,-26.135498046875,10.860595703125,14.584228515625
0.025,-25.735107421875,6.696533203125,18.427978515625
0.0255,-24.533935546875,3.012939453125,20.830322265625
0.026,-22.091552734375,-2.832763671875,24.193603515625
0.0265,-19.368896484375,-7.717529296875,26.315673828125
0.027,-14.123779296875,-13.523193359375,26.756103515625
0.0275,-10.520263671875,-17.326904296875,26.876220703125
0.028,-5.515380859375,-20.810302734375,25.354736328125
0.0285,-0.830810546875,-23.172607421875,23.152587890625
0.029,4.814697265625,-25.534912109375,19.989501953125
0.0295,10.460205078125,-27.376708984375,16.345947265625
0.03,15.505126953125,-26.535888671875,10.700439453125
0.0305,19.028564453125,-26.455810546875,7.297119140625
0.031,21.831298828125,-24.734130859375,2.852783203125
0.0315,24.874267578125,-22.531982421875,-2.432373046875
0.032,26.315673828125,-19.088623046875,-7.357177734375
0.0325,27.196533203125,-14.444091796875,-12.922607421875
0.033,26.355712890625,-9.959716796875,-16.606201171875
0.0335,25.554931640625,-5.555419921875,-20.249755859375
0.034,23.633056640625,-1.431396484375,-22.371826171875
0.0345,21.270751953125,4.134033203125,-25.454833984375
0.035,17.827392578125,9.659423828125,-27.416748046875
0.0355,12.261962890625,15.064697265625,-27.136474609375
0.036,8.898681640625,18.387939453125,-27.016357421875
0.0365,3.653564453125,21.470947265625,-24.894287109375
0.037,-1.631591796875,24.033447265625,-22.371826171875
0.0375,-6.436279296875,25.755126953125,-19.368896484375
0.038,-12.682373046875,27.156494140625,-14.764404296875
0.0385,-16.526123046875,25.955322265625,-9.959716796875
0.039,-20.049560546875,25.715087890625,-6.316162109375
0.0395,-22.451904296875,23.352783203125,-1.671630859375
0.04,-25.334716796875,21.110595703125,3.493408203125
0.0405,-26.335693359375,17.226806640625,8.378173828125
0.041,-26.656005859375,12.181884765625,13.743408203125
0.0415,-26.055419921875,8.338134765625,16.986572265625
0.042,-24.814208984375,3.813720703125,20.349853515625
0.0425,-22.732177734375,-0.590576171875,22.592041015625
0.043,-20.489990234375,-5.435302734375,25.234619140625
0.0435,-16.205810546875,-11.481201171875,26.836181640625
0.044,-11.080810546875,-15.885498046875,26.075439453125
0.0445,-7.917724609375,-19.088623046875,25.995361328125
0.045,-2.632568359375,-21.651123046875,23.352783203125
0.0455,2.572509765625,-24.333740234375,20.990478515625
0.046,7.096923828125,-25.614990234375,17.867431640625
0.0465,13.503173828125,-26.816162109375,12.862548828125
0.047,16.786376953125,-25.655029296875,8.658447265625
0.0475,20.389892578125,-25.254638671875,4.774658203125
0.048,22.552001953125,-22.772216796875,0.210205078125
0.0485,25.234619140625,-20.610107421875,-4.754638671875
0.049,25.995361328125,-16.285888671875,-9.879638671875
0.0495,25.955322265625,-11.401123046875,-14.804443359375
0.05,25.635009765625,-7.997802734375,-17.847412109375
0.0505,23.873291015625,-2.952880859375,-21.090576171875
0.051,21.911376953125,1.611572265625,-23.572998046875
0.0515,19.509033203125,6.376220703125,-25.895263671875
0.052,14.784423828125,12.662353515625,-27.376708984375
0.0525,9.819580078125,16.506103515625,-26.135498046875
0.053,6.416259765625,19.869384765625,-26.095458984375
0.0535,0.490478515625,22.471923828125,-22.812255859375
0.054,-4.514404296875,25.154541015625,-20.690185546875
0.0545,-9.519287109375,25.875244140625,-16.606201171875
0.055,-15.284912109375,26.796142578125,-11.961669921875
0.0555,-18.327880859375,25.474853515625,-7.717529296875
0.056,-21.891357421875,24.433837890625,-3.193115234375
0.0565,-24.093505859375,21.671142578125,1.691650390625
0.057,-26.415771484375,19.148681640625,6.536376953125
0.0575,-26.656005859375,14.063720703125,11.861572265625
0.058,-26.255615234375,9.259033203125,16.345947265625
0.0585,-25.775146484375,6.055908203125,19.148681640625
0.059,-23.252685546875,0.130126953125,22.431884765625
0.0595,-21.290771484375,-4.354248046875,24.834228515625
0.06,-17.847412109375,-9.479248046875,26.435791015625
0.0605,-13.122802734375,-15.244873046875,27.396728515625
0.061,-8.077880859375,-18.608154296875,25.755126953125
0.0615,-4.434326171875,-21.571044921875,24.994384765625
0.062,1.771728515625,-23.973388671875,21.430908203125
0.0625,6.376220703125,-26.335693359375,19.348876953125
0.063,11.821533203125,-26.255615234375,13.943603515625
0.0635,16.626220703125,-26.816162109375,9.899658203125
0.064,19.509033203125,-25.614990234375,5.975830078125
0.0645,22.872314453125,-23.693115234375,0.730712890625
0.065,24.674072265625,-20.970458984375,-3.833740234375
0.0655,26.435791015625,-17.967529296875,-8.678466796875
0.066,26.315673828125,-12.762451171875,-13.643310546875
0.0665,25.514892578125,-8.157958984375,-17.527099609375
0.067,24.994384765625,-5.114990234375,-20.049560546875
0.0675,22.071533203125,0.970947265625,-23.132568359375
0.068,20.349853515625,5.135009765625,-25.494873046875
0.0685,15.865478515625,10.540283203125,-26.295654296875
0.069,11.781494140625,15.505126953125,-27.096435546875
0.0695,7.016845703125,18.748291015625,-25.574951171875
0.07,2.532470703125,21.591064453125,-23.933349609375
0.0705,-3.072998046875,23.753173828125,-20.690185546875
0.071,-7.717529296875,26.075439453125,-18.488037109375
0.0715,-13.122802734375,25.635009765625,-12.842529296875
0.072,-17.086669921875,25.635009765625,-9.078857421875
0.0725,-19.809326171875,24.834228515625,-5.755615234375
0.073,-23.092529296875,22.431884765625,0.010009765625
0.0735,-24.894287109375,19.709228515625,4.414306640625
0.074,-26.135498046875,15.905517578125,9.499267578125
0.0745,-26.215576171875,11.341064453125,14.183837890625
0.075,-25.174560546875,6.736572265625,17.787353515625
0.0755,-24.293701171875,3.333251953125,20.309814453125
0.076,-21.571044921875,-2.472412109375,23.312744140625
0.0765,-19.609130859375,-7.116943359375,25.955322265625
0.077,-14.163818359375,-12.602294921875,25.915283203125
0.0775,-10.600341796875,-16.726318359375,26.475830078125
0.078,-6.156005859375,-19.769287109375,24.994384765625
0.0785,-1.031005859375,-22.572021484375,22.752197265625
0.079,4.174072265625,-24.573974609375,19.669189453125
0.0795,9.659423828125,-26.615966796875,16.345947265625
0.08,14.664306640625,-26.135498046875,11.180908203125
0.0805,18.347900390625,-25.775146484375,7.177001953125
0.081,20.790283203125,-24.533935546875,3.653564453125
0.0815,24.033447265625,-22.091552734375,-2.112060546875
0.082,25.755126953125,-19.008544921875,-6.836669921875
0.0825,26.235595703125,-14.243896484375,-12.081787109375
0.083,26.235595703125,-10.320068359375,-16.045654296875
0.0835,24.994384765625,-5.715576171875,-19.489013671875
0.084,23.392822265625,-1.751708984375,-21.851318359375
0.0845,20.790283203125,3.893798828125,-24.654052734375
0.085,17.947509765625,9.379150390625,-27.256591796875
0.0855,12.261962890625,14.464111328125,-26.615966796875
0.086,8.818603515625,18.187744140625,-26.776123046875
0.0865,4.174072265625,20.790283203125,-24.774169921875
0.087,-1.631591796875,23.833251953125,-22.131591796875
0.0875,-6.436279296875,25.474853515625,-19.128662109375
0.088,-12.602294921875,26.876220703125,-14.564208984375
0.0885,-16.365966796875,26.115478515625,-10.280029296875
0.089,-20.049560546875,25.474853515625,-6.075927734375
0.0895,-22.291748046875,23.392822265625,-1.951904296875
0.09,-25.254638671875,20.910400390625,3.613525390625
0.0905,-26.776123046875,17.266845703125,8.818603515625
0.091,-26.495849609375,11.861572265625,13.943603515625
0.0915,-26.495849609375,8.458251953125,17.346923828125
0.092,-24.854248046875,3.773681640625,20.469970703125
0.0925,-22.812255859375,-0.910888671875,23.032470703125
0.093,-20.209716796875,-5.955810546875,25.474853515625
0.0935,-16.165771484375,-12.201904296875,27.516845703125
0.094,-10.920654296875,-16.365966796875,26.355712890625
0.0945,-7.437255859375,-19.809326171875,26.315673828125
0.095,-2.592529296875,-21.931396484375,23.593017578125
0.0955,3.253173828125,-24.974365234375,20.990478515625
0.096,8.057861328125,-26.255615234375,17.587158203125
0.0965,14.384033203125,-27.176513671875,12.342041015625
0.097,17.427001953125,-26.295654296875,8.658447265625
0.0975,20.990478515625,-25.414794921875,4.214111328125
0.098,23.072509765625,-22.852294921875,-0.270263671875
0.0985,25.594970703125,-20.249755859375,-5.315185546875
0.099,26.756103515625,-16.005615234375,-10.880615234375
0.0995,26.035400390625,-10.840576171875,-15.324951171875
0.1,25.995361328125,-7.717529296875,-18.447998046875
0.1005,23.833251953125,-2.832763671875,-21.170654296875
0.101,21.751220703125,2.172119140625,-23.973388671875
0.1015,19.068603515625,6.936767578125,-25.935302734375
0.102,14.384033203125,13.302978515625,-27.536865234375
0.1025,9.619384765625,16.666259765625,-26.175537109375
0.103,5.895751953125,20.149658203125,-25.815185546875
0.1035,0.650634765625,22.151611328125,-22.652099609375
0.104,-4.674560546875,24.994384765625,-20.329833984375
0.1045,-9.879638671875,25.835205078125,-16.205810546875
0.105,-15.244873046875,26.195556640625,-11.401123046875
0.1055,-18.087646484375,25.474853515625,-8.037841796875
0.106,-21.410888671875,23.993408203125,-3.233154296875
0.1065,-23.572998046875,21.510986328125,1.331298828125
0.107,-25.494873046875,18.788330078125,6.015869140625
0.1075,-26.455810546875,14.023681640625,11.821533203125
0.108,-25.494873046875,9.218994140625,15.625244140625
0.1085,-25.494873046875,6.176025390625,18.708251953125
0.109,-22.852294921875,0.970947265625,21.270751953125
0.1095,-21.130615234375,-3.753662109375,24.153564453125
0.11,-17.567138671875,-8.798583984375,25.594970703125
0.1105,-12.922607421875,-14.644287109375,26.716064453125
0.111,-8.798583984375,-17.647216796875,25.554931640625
0.1115,-4.594482421875,-20.810302734375,24.473876953125
0.112,0.690673828125,-22.812255859375,21.310791015625
0.1125,5.415283203125,-25.374755859375,19.228759765625
0.113,11.381103515625,-26.095458984375,14.183837890625
0.1135,15.825439453125,-26.015380859375,9.819580078125
0.114,18.788330078125,-25.655029296875,6.696533203125
0.1145,21.951416015625,-23.332763671875,1.291259765625
0.115,24.153564453125,-21.010498046875,-3.193115234375
0.1155,25.594970703125,-17.807373046875,-7.837646484375
0.116,26.395751953125,-12.962646484375,-13.523193359375
0.1165,25.314697265625,-8.478271484375,-16.966552734375
0.117,24.994384765625,-5.155029296875,-19.969482421875
0.1175,22.071533203125,0.410400390625,-22.572021484375
0.118,20.469970703125,5.054931640625,-25.534912109375
0.1185,15.865478515625,10.540283203125,-26.335693359375
0.119,11.541259765625,15.665283203125,-27.056396484375
0.1195,7.497314453125,18.708251953125,-26.015380859375
0.12,2.252197265625,21.911376953125,-23.973388671875
0.1205,-3.153076171875,23.913330078125,-20.810302734375
0.121,-7.997802734375,26.155517578125,-18.287841796875
0.1215,-13.843505859375,26.395751953125,-13.002685546875
0.122,-17.687255859375,25.755126953125,-8.638427734375
0.1225,-20.489990234375,25.354736328125,-5.555419921875
0.123,-23.693115234375,22.471923828125,0.530517578125
0.1235,-25.775146484375,19.789306640625,5.255126953125
0.124,-26.415771484375,15.425048828125,10.219970703125
0.1245,-27.016357421875,11.060791015625,15.304931640625
0.125,-25.614990234375,6.416259765625,18.548095703125
0.1255,-24.573974609375,2.532470703125,21.430908203125
0.126,-21.490966796875,-3.153076171875,23.953369140625
0.1265,-19.408935546875,-8.197998046875,26.796142578125
0.127,-13.803466796875,-13.603271484375,26.515869140625
0.1275,-9.879638671875,-17.847412109375,26.756103515625
0.128,-5.955810546875,-20.489990234375,25.514892578125
0.1285,0.010009765625,-23.572998046875,22.712158203125
0.129,5.014892578125,-25.294677734375,19.509033203125
0.1295,10.500244140625,-26.856201171875,15.665283203125
0.13,15.505126953125,-26.896240234375,11.020751953125
0.1305,19.028564453125,-25.655029296875,6.456298828125
0.131,21.390869140625,-24.694091796875,3.213134765625
0.1315,24.313720703125,-21.771240234375,-2.592529296875
0.132,26.195556640625,-18.888427734375,-7.397216796875
0.1325,25.875244140625,-13.763427734375,-12.201904296875
0.133,26.395751953125,-10.079833984375,-16.406005859375
0.1335,24.874267578125,-5.755615234375,-19.288818359375
0.134,23.232666015625,-1.271240234375,-22.091552734375
0.1345,20.429931640625,3.853759765625,-24.293701171875
0.135,17.667236328125,9.259033203125,-26.896240234375
0.1355,12.382080078125,14.143798828125,-26.415771484375
0.136,8.338134765625,17.987548828125,-26.135498046875
0.1365,4.734619140625,20.189697265625,-24.734130859375
0.137,-1.551513671875,23.352783203125,-21.771240234375
0.1375,-6.035888671875,24.994384765625,-19.088623046875
0.138,-11.881591796875,25.795166015625,-14.163818359375
0.1385,-15.765380859375,26.115478515625,-10.760498046875
0.139,-19.248779296875,24.914306640625,-6.276123046875
0.1395,-21.611083984375,23.352783203125,-2.472412109375
0.14,-24.293701171875,20.550048828125,3.012939453125
0.1405,-26.295654296875,17.427001953125,8.177978515625
0.141,-25.574951171875,11.981689453125,12.862548828125
0.1415,-26.095458984375,8.658447265625,16.786376953125
0.142,-24.654052734375,4.574462890625,19.468994140625
0.1425,-22.732177734375,-0.590576171875,22.592041015625
0.143,-20.049560546875,-5.395263671875,24.714111328125
0.1435,-16.005615234375,-11.521240234375,26.716064453125
0.144,-11.521240234375,-15.685302734375,26.275634765625
0.1445,-7.357177734375,-19.448974609375,25.795166015625
0.145,-3.353271484375,-21.330810546875,23.713134765625
0.1455,2.892822265625,-24.654052734375,20.830322265625
0.146,7.937744140625,-26.175537109375,17.667236328125
0.1465,14.063720703125,-26.455810546875,12.021728515625
0.147,17.306884765625,-26.535888671875,8.978759765625
0.1475,20.790283203125,-25.254638671875,4.334228515625
0.148,23.232666015625,-23.052490234375,-0.310302734375
0.1485,25.514892578125,-20.089599609375,-5.475341796875
0.149,27.196533203125,-16.005615234375,-11.240966796875
0.1495,26.075439453125,-10.720458984375,-15.525146484375
0.15,26.235595703125,-7.397216796875,-19.008544921875
0.1505,24.113525390625,-2.832763671875,-21.450927734375
0.151,21.991455078125,2.692626953125,-24.694091796875
0.1515,18.868408203125,7.737548828125,-26.495849609375
0.152,13.903564453125,14.103759765625,-27.817138671875
0.1525,9.739501953125,17.427001953125,-27.016357421875
0.153,5.175048828125,21.110595703125,-26.055419921875
0.1535,0.170166015625,22.912353515625,-23.052490234375
0.154,-5.475341796875,25.795166015625,-20.369873046875
0.1545,-11.200927734375,26.996337890625,-16.045654296875
0.155,-16.365966796875,26.635986328125,-10.760498046875
0.1555,-19.288818359375,26.355712890625,-7.717529296875
0.156,-22.491943359375,24.393798828125,-2.592529296875
0.1565,-24.934326171875,21.831298828125,2.372314453125
0.157,-26.495849609375,18.548095703125,7.217041015625
0.1575,-27.616943359375,13.663330078125,13.302978515625
0.158,-26.295654296875,8.778564453125,16.906494140625
0.1585,-26.135498046875,5.375244140625,20.149658203125
0.159,-23.332763671875,0.370361328125,22.351806640625
0.1595,-21.410888671875,-4.794677734375,25.474853515625
0.16,-17.326904296875,-10.199951171875,26.716064453125
0.1605,-12.241943359375,-16.005615234375,27.316650390625
0.161,-8.638427734375,-18.928466796875,26.515869140625
0.1615,-3.793701171875,-22.131591796875,24.834228515625
0.162,1.451416015625,-23.893310546875,21.631103515625
0.1625,6.416259765625,-26.215576171875,19.108642578125
0.163,12.782470703125,-27.096435546875,13.903564453125
0.1635,16.826416015625,-26.295654296875,9.218994140625
0.164,19.829345703125,-26.255615234375,6.296142578125
0.1645,22.752197265625,-23.572998046875,0.810791015625
0.165,25.034423828125,-21.170654296875,-3.913818359375
0.1655,26.035400390625,-17.487060546875,-8.638427734375
0.166,26.876220703125,-12.562255859375,-14.404052734375
0.1665,25.635009765625,-8.318115234375,-17.487060546875
0.167,25.114501953125,-4.634521484375,-20.610107421875
0.1675,22.191650390625,0.490478515625,-22.772216796875
0.168,20.469970703125,5.255126953125,-25.695068359375
0.1685,15.665283203125,11.020751953125,-26.615966796875
0.169,10.900634765625,15.905517578125,-26.696044921875
0.1695,7.697509765625,18.748291015625,-26.295654296875
0.17,2.092041015625,21.831298828125,-23.733154296875
0.1705,-2.992919921875,23.873291015625,-20.850341796875
0.171,-7.717529296875,25.635009765625,-18.047607421875
0.1715,-13.843505859375,26.435791015625,-12.922607421875
0.172,-17.286865234375,25.314697265625,-8.518310546875
0.1725,-20.289794921875,25.234619140625,-5.555419921875
0.173,-23.052490234375,22.271728515625,0.090087890625
0.1735,-25.374755859375,19.869384765625,4.814697265625
0.174,-25.775146484375,15.385009765625,9.739501953125
0.1745,-26.495849609375,10.900634765625,14.904541015625
0.175,-25.494873046875,7.056884765625,17.827392578125
0.1755,-24.333740234375,2.652587890625,21.070556640625
0.176,-21.531005859375,-2.432373046875,23.232666015625
0.1765,-19.489013671875,-7.397216796875,26.075439453125
0.177,-14.123779296875,-13.202880859375,26.435791015625
0.1775,-9.759521484375,-17.366943359375,26.075439453125
0.178,-6.636474609375,-20.009521484375,25.715087890625
0.1785,-0.510498046875,-23.052490234375,22.632080078125
0.179,4.494384765625,-25.054443359375,19.869384765625
0.1795,9.939697265625,-26.255615234375,15.785400390625
0.18,15.385009765625,-27.056396484375,11.381103515625
0.1805,18.708251953125,-25.655029296875,6.776611328125
