wavelength,x,y,z
0.0,4.8046875,-5.60546875,-1.12109375
0.0005,4.404296875,-6.24609375,-0.3203125
0.001,3.68359375,-6.4462890625,0.560546875
0.0015,2.40234375,-6.4462890625,1.76171875
0.002,0.80078125,-6.40625,3.36328125
0.0025,-0.720703125,-6.3662109375,4.8046875
0.003,-1.4013671875,-6.4462890625,5.7255859375
0.0035,-2.0419921875,-6.3662109375,6.2861328125
0.004,-3.0029296875,-5.525390625,6.646484375
0.0045,-4.32421875,-4.00390625,6.6865234375
0.005,-5.4853515625,-2.4423828125,6.56640625
0.0055,-6.326171875,-1.1611328125,6.486328125
0.006,-6.4462890625,-0.4404296875,6.326171875
0.0065,-6.2861328125,0.3203125,5.8056640625
0.007,-5.92578125,1.28125,4.7646484375
0.0075,-5.525390625,2.5625,3.3232421875
0.008,-5.125,3.923828125,1.76171875
0.0085,-4.9248046875,4.8447265625,0.7607421875
0.009,-4.5244140625,5.3251953125,0.080078125
0.0095,-3.8037109375,5.4453125,-0.80078125
0.01,-2.482421875,5.4853515625,-2.001953125
0.0105,-0.9609375,5.525390625,-3.5634765625
0.011,0.2802734375,5.60546875,-4.8447265625
0.0115,0.9208984375,5.7255859375,-5.6455078125
0.012,1.5615234375,5.525390625,-6.24609375
0.0125,2.5625,4.6044921875,-6.486328125
0.013,3.84375,3.1630859375,-6.6064453125
0.0135,5.044921875,1.6416015625,-6.56640625
0.014,5.7255859375,0.6005859375,-6.56640625
0.0145,5.8857421875,0.0,-6.40625
0.015,5.7255859375,-0.80078125,-5.845703125
0.0155,5.365234375,-1.841796875,-4.8046875
0.016,5.044921875,-3.203125,-3.3232421875
0.0165,4.8046875,-4.5244140625,-2.001953125
0.017,4.564453125,-5.4453125,-1.1611328125
0.0175,4.1640625,-5.92578125,-0.48046875
0.018,3.3232421875,-6.005859375,0.560546875
0.0185,2.0419921875,-6.0859375,1.921875
0.019,0.48046875,-6.1259765625,3.4833984375
0.0195,-0.560546875,-6.326171875,4.64453125
0.02,-1.1611328125,-6.4462890625,5.4453125
0.0205,-1.921875,-6.1259765625,5.9658203125
0.021,-3.0830078125,-5.0048828125,6.2060546875
0.0215,-4.3642578125,-3.5634765625,6.326171875
0.022,-5.4453125,-2.1220703125,6.326171875
0.0225,-5.9658203125,-1.28125,6.326171875
0.023,-6.0458984375,-0.640625,6.0859375
0.0235,-5.8056640625,0.16015625,5.4453125
0.024,-5.525390625,1.28125,4.2841796875
0.0245,-5.205078125,2.642578125,2.8427734375
0.025,-5.044921875,3.84375,1.6015625
0.0255,-4.8447265625,4.564453125,0.8408203125
0.026,-4.3642578125,4.96484375,0.16015625
0.0265,-3.36328125,5.0849609375,-0.9208984375
0.027,-2.08203125,5.2451171875,-2.2822265625
0.0275,-0.6806640625,5.3251953125,-3.8037109375
0.028,0.16015625,5.5654296875,-4.8046875
0.0285,0.7607421875,5.60546875,-5.4853515625
0.029,1.6015625,5.0849609375,-5.92578125
0.0295,2.8427734375,3.8837890625,-6.166015625
0.03,4.083984375,2.4423828125,-6.24609375
0.0305,5.0048828125,1.2412109375,-6.2861328125
0.031,5.4052734375,0.560546875,-6.2861328125
0.0315,5.4052734375,0.0,-6.0458984375
0.032,5.1650390625,-1.0009765625,-5.28515625
0.0325,4.9248046875,-2.2421875,-4.0439453125
0.033,4.64453125,-3.5634765625,-2.72265625
0.0335,4.5244140625,-4.6044921875,-1.76171875
0.034,4.3642578125,-5.1650390625,-1.041015625
0.0345,3.763671875,-5.4853515625,-0.3203125
0.035,2.6826171875,-5.6455078125,0.9208984375
0.0355,1.361328125,-5.7255859375,2.2421875
0.036,0.240234375,-5.92578125,3.603515625
0.0365,-0.5205078125,-6.166015625,4.5244140625
0.037,-1.12109375,-6.166015625,5.2451171875
0.0375,-2.001953125,-5.525390625,5.60546875
0.038,-3.203125,-4.32421875,5.8056640625
0.0385,-4.404296875,-2.9228515625,5.8857421875
0.039,-5.205078125,-1.9619140625,6.0458984375
0.0395,-5.525390625,-1.361328125,6.0458984375
0.04,-5.4853515625,-0.720703125,5.685546875
0.0405,-5.3251953125,0.2001953125,4.8046875
0.041,-5.125,1.3212890625,3.7236328125
0.0415,-5.0048828125,2.6826171875,2.482421875
0.042,-4.884765625,3.6435546875,1.6416015625
0.0425,-4.6845703125,4.2841796875,1.0009765625
0.043,-4.1240234375,4.6044921875,0.2802734375
0.0435,-3.0029296875,4.8046875,-1.0009765625
0.044,-1.7216796875,4.96484375,-2.4423828125
0.0445,-0.8408203125,5.28515625,-3.68359375
0.045,-0.240234375,5.5654296875,-4.564453125
0.0455,0.6005859375,5.4052734375,-5.205078125
0.046,1.6416015625,4.6044921875,-5.60546875
0.0465,2.9228515625,3.4033203125,-5.8056640625
0.047,4.083984375,2.1220703125,-5.92578125
0.0475,4.7646484375,1.28125,-6.1259765625
0.048,5.044921875,0.720703125,-6.1259765625
0.0485,5.044921875,0.0,-5.7255859375
0.049,4.8046875,-1.12109375,-4.8046875
0.0495,4.6044921875,-2.3623046875,-3.5634765625
0.05,4.6044921875,-3.5634765625,-2.5224609375
0.0505,4.484375,-4.404296875,-1.8017578125
0.051,4.2041015625,-4.9248046875,-1.12109375
0.0515,3.443359375,-5.205078125,-0.2001953125
0.052,2.2822265625,-5.4453125,1.1611328125
0.0525,1.0810546875,-5.6455078125,2.5625
0.053,0.3203125,-5.9658203125,3.68359375
0.0535,-0.3603515625,-6.166015625,4.484375
0.054,-1.1611328125,-5.8857421875,5.0849609375
0.0545,-2.2822265625,-4.884765625,5.4052734375
0.055,-3.5234375,-3.68359375,5.5654296875
0.0555,-4.564453125,-2.5224609375,5.7255859375
0.056,-5.125,-1.8818359375,5.8857421875
0.0565,-5.28515625,-1.361328125,5.8056640625
0.057,-5.1650390625,-0.640625,5.2451171875
0.0575,-5.0849609375,0.5205078125,4.244140625
0.058,-4.884765625,1.8818359375,3.123046875
0.0585,-4.884765625,3.0029296875,2.2021484375
0.059,-4.8046875,3.763671875,1.521484375
0.0595,-4.4443359375,4.2041015625,0.8408203125
0.06,-3.5634765625,4.484375,-0.2802734375
0.0605,-2.4423828125,4.724609375,-1.6015625
0.061,-1.361328125,5.044921875,-2.9228515625
0.0615,-0.6806640625,5.4052734375,-3.9638671875
0.062,0.080078125,5.4853515625,-4.7646484375
0.0625,1.0009765625,5.0048828125,-5.28515625
0.063,2.2421875,3.9638671875,-5.60546875
0.0635,3.4833984375,2.6826171875,-5.765625
0.064,4.404296875,1.6416015625,-6.0458984375
0.0645,4.8046875,1.041015625,-6.1259765625
0.065,4.9248046875,0.400390625,-5.845703125
0.0655,4.8046875,-0.6005859375,-5.1650390625
0.066,4.64453125,-1.7216796875,-4.0439453125
0.0665,4.6044921875,-3.04296875,-2.9228515625
0.067,4.5244140625,-4.0439453125,-2.08203125
0.0675,4.404296875,-4.724609375,-1.44140625
0.068,3.8037109375,-5.0849609375,-0.640625
0.0685,2.72265625,-5.28515625,0.6806640625
0.069,1.521484375,-5.4853515625,2.08203125
0.0695,0.6005859375,-5.8857421875,3.3232421875
0.07,0.0,-6.166015625,4.244140625
0.0705,-0.9208984375,-6.0458984375,4.9248046875
0.071,-1.9619140625,-5.205078125,5.28515625
0.0715,-3.203125,-4.0439453125,5.5654296875
0.072,-4.3642578125,-2.802734375,5.7255859375
0.0725,-5.044921875,-1.9619140625,5.8857421875
0.073,-5.28515625,-1.44140625,5.845703125
0.0735,-5.3251953125,-0.80078125,5.4052734375
0.074,-5.125,0.3603515625,4.5244140625
0.0745,-4.96484375,1.6015625,3.3232421875
0.075,-4.884765625,2.8828125,2.2421875
0.0755,-4.8447265625,3.7236328125,1.5615234375
0.076,-4.5244140625,4.2041015625,0.880859375
0.0765,-3.763671875,4.484375,0.0
0.077,-2.642578125,4.7646484375,-1.44140625
0.0775,-1.44140625,4.96484375,-2.802734375
0.078,-0.6806640625,5.3251953125,-3.8837890625
0.0785,0.0400390625,5.525390625,-4.7646484375
0.079,0.9208984375,5.1650390625,-5.3251953125
0.0795,2.0419921875,4.1240234375,-5.6455078125
0.08,3.3232421875,2.8427734375,-5.8056640625
0.0805,4.3642578125,1.6015625,-5.9658203125
0.081,4.9248046875,0.9609375,-6.1259765625
0.0815,5.044921875,0.3203125,-5.9658203125
0.082,4.96484375,-0.5205078125,-5.3251953125
0.0825,4.7646484375,-1.6015625,-4.244140625
0.083,4.6044921875,-2.962890625,-3.04296875
0.0835,4.5244140625,-4.0439453125,-2.0419921875
0.084,4.4443359375,-4.8046875,-1.361328125
0.0845,3.8837890625,-5.1650390625,-0.640625
0.085,2.8828125,-5.3251953125,0.560546875
0.0855,1.681640625,-5.5654296875,1.921875
0.086,0.6005859375,-5.8056640625,3.283203125
0.0865,-0.16015625,-6.1259765625,4.244140625
0.087,-0.8408203125,-6.1259765625,5.0048828125
0.0875,-1.8017578125,-5.525390625,5.4453125
0.088,-3.0830078125,-4.32421875,5.685546875
0.0885,-4.2841796875,-3.0029296875,5.8056640625
0.089,-5.1650390625,-2.001953125,5.9658203125
0.0895,-5.525390625,-1.4013671875,6.005859375
0.09,-5.4853515625,-0.720703125,5.60546875
0.0905,-5.28515625,0.3203125,4.8046875
0.091,-5.125,1.521484375,3.603515625
0.0915,-5.0048828125,2.8828125,2.3623046875
0.092,-4.884765625,3.84375,1.521484375
0.0925,-4.64453125,4.404296875,0.8408203125
0.093,-3.9638671875,4.6845703125,0.0400390625
0.0935,-2.8427734375,4.884765625,-1.3212890625
0.094,-1.4814453125,5.0849609375,-2.8427734375
0.0945,-0.6005859375,5.4052734375,-4.0439453125
0.095,0.16015625,5.60546875,-4.9248046875
0.0955,0.9609375,5.365234375,-5.5654296875
0.096,2.08203125,4.404296875,-5.92578125
0.0965,3.4033203125,3.0029296875,-6.0859375
0.097,4.564453125,1.6416015625,-6.166015625
0.0975,5.1650390625,0.7607421875,-6.2861328125
0.098,5.4052734375,0.240234375,-6.1259765625
0.0985,5.28515625,-0.640625,-5.5654296875
0.099,5.0048828125,-1.76171875,-4.4443359375
0.0995,4.7646484375,-3.1630859375,-3.0830078125
0.1,4.64453125,-4.3642578125,-1.921875
0.1005,4.484375,-5.1650390625,-1.1611328125
0.101,4.00390625,-5.5654296875,-0.400390625
0.1015,3.0029296875,-5.765625,0.6806640625
0.102,1.681640625,-5.845703125,2.162109375
0.1025,0.3203125,-5.9658203125,3.6435546875
0.103,-0.5205078125,-6.2861328125,4.6845703125
0.1035,-1.1611328125,-6.2861328125,5.4052734375
0.104,-2.08203125,-5.7255859375,5.8857421875
0.1045,-3.36328125,-4.5244140625,6.1259765625
0.105,-4.64453125,-3.0029296875,6.2060546875
0.1055,-5.6455078125,-1.76171875,6.24609375
0.106,-5.9658203125,-1.0009765625,6.2060546875
0.1065,-5.9658203125,-0.3603515625,5.8056640625
0.107,-5.7255859375,0.6806640625,4.96484375
0.1075,-5.4052734375,1.9619140625,3.603515625
0.108,-5.125,3.36328125,2.162109375
0.1085,-5.0048828125,4.4443359375,1.12109375
0.109,-4.64453125,4.96484375,0.4404296875
0.1095,-3.9638671875,5.2451171875,-0.48046875
0.11,-2.72265625,5.28515625,-1.681640625
0.1105,-1.28125,5.4052734375,-3.2431640625
0.111,0.0,5.5654296875,-4.564453125
0.1115,0.640625,5.7255859375,-5.4853515625
0.112,1.4013671875,5.5654296875,-6.1259765625
0.1125,2.482421875,4.6044921875,-6.4462890625
0.113,3.84375,3.0830078125,-6.6064453125
0.1135,5.044921875,1.521484375,-6.6064453125
0.114,5.765625,0.48046875,-6.56640625
0.1145,5.92578125,-0.2802734375,-6.40625
0.115,5.7255859375,-1.0009765625,-5.765625
0.1155,5.4052734375,-2.162109375,-4.564453125
0.116,5.044921875,-3.5634765625,-3.0830078125
0.1165,4.7646484375,-4.8447265625,-1.7216796875
0.117,4.5244140625,-5.685546875,-0.80078125
0.1175,4.083984375,-6.1259765625,0.0
0.118,3.0830078125,-6.166015625,0.9609375
0.1185,1.6015625,-6.24609375,2.40234375
0.119,0.080078125,-6.2060546875,3.9638671875
0.1195,-0.9609375,-6.40625,5.125
0.12,-1.5615234375,-6.4462890625,5.8857421875
0.1205,-2.3623046875,-5.9658203125,6.3662109375
0.121,-3.603515625,-4.7646484375,6.5263671875
0.1215,-4.9248046875,-3.203125,6.56640625
0.122,-5.92578125,-1.681640625,6.5263671875
0.1225,-6.40625,-0.7607421875,6.40625
0.123,-6.40625,0.0,6.0859375
0.1235,-6.1259765625,0.7607421875,5.28515625
0.124,-5.7255859375,2.001953125,3.9638671875
0.1245,-5.3251953125,3.443359375,2.3623046875
0.125,-5.0849609375,4.6044921875,1.12109375
0.1255,-4.7646484375,5.28515625,0.2802734375
0.126,-4.1640625,5.5654296875,-0.5205078125
0.1265,-3.0029296875,5.60546875,-1.6015625
0.127,-1.4814453125,5.6455078125,-3.203125
0.1275,0.0400390625,5.685546875,-4.64453125
0.128,0.80078125,5.8056640625,-5.6455078125
0.1285,1.44140625,5.7255859375,-6.2861328125
0.129,2.40234375,5.0048828125,-6.6865234375
0.1295,3.68359375,3.5234375,-6.88671875
0.13,4.96484375,1.9619140625,-6.7666015625
0.1305,5.845703125,0.640625,-6.7265625
0.131,6.1259765625,-0.2802734375,-6.56640625
0.1315,6.0458984375,-0.9609375,-6.1259765625
0.132,5.685546875,-1.921875,-5.125
0.1325,5.28515625,-3.2431640625,-3.603515625
0.133,4.884765625,-4.6044921875,-2.0419921875
0.1335,4.64453125,-5.6455078125,-0.9609375
0.134,4.2841796875,-6.166015625,-0.2001953125
0.1345,3.4833984375,-6.3662109375,0.6806640625
0.135,2.1220703125,-6.3662109375,1.9619140625
0.1355,0.5205078125,-6.326171875,3.5634765625
0.136,-0.80078125,-6.40625,4.9248046875
0.1365,-1.44140625,-6.5263671875,5.765625
0.137,-2.1220703125,-6.2861328125,6.326171875
0.1375,-3.203125,-5.4052734375,6.6064453125
0.138,-4.5244140625,-3.763671875,6.6865234375
0.1385,-5.685546875,-2.162109375,6.56640625
0.139,-6.40625,-1.0009765625,6.5263671875
0.1395,-6.486328125,-0.3203125,6.2861328125
0.14,-6.2861328125,0.48046875,5.685546875
0.1405,-5.8857421875,1.521484375,4.484375
0.141,-5.4853515625,2.8828125,3.0029296875
0.1415,-5.1650390625,4.2841796875,1.521484375
0.142,-4.9248046875,5.0849609375,0.6005859375
0.1425,-4.484375,5.525390625,-0.240234375
0.143,-3.5634765625,5.6455078125,-1.041015625
0.1435,-2.08203125,5.6455078125,-2.5224609375
0.144,-0.560546875,5.60546875,-4.083984375
0.1445,0.560546875,5.7255859375,-5.3251953125
0.145,1.1611328125,5.8056640625,-6.0859375
0.1455,1.921875,5.365234375,-6.56640625
0.146,3.1630859375,4.2041015625,-6.7666015625
0.1465,4.484375,2.6025390625,-6.806640625
0.147,5.5654296875,1.12109375,-6.7265625
0.1475,6.0859375,0.16015625,-6.6865234375
0.148,6.1259765625,-0.6005859375,-6.40625
0.1485,5.8857421875,-1.361328125,-5.6455078125
0.149,5.4453125,-2.642578125,-4.2841796875
0.1495,5.0849609375,-4.083984375,-2.642578125
0.15,4.8046875,-5.3251953125,-1.3212890625
0.1505,4.484375,-6.0458984375,-0.5205078125
0.151,3.8837890625,-6.326171875,0.3203125
0.1515,2.7626953125,-6.3662109375,1.4013671875
0.152,1.201171875,-6.40625,2.962890625
0.1525,-0.4404296875,-6.40625,4.484375
0.153,-1.2412109375,-6.486328125,5.4853515625
0.1535,-1.8818359375,-6.486328125,6.1259765625
0.154,-2.7626953125,-5.765625,6.5263671875
0.1545,-4.0439453125,-4.32421875,6.6865234375
0.155,-5.28515625,-2.72265625,6.646484375
0.1555,-6.2060546875,-1.361328125,6.5263671875
0.156,-6.4462890625,-0.6005859375,6.40625
0.1565,-6.3662109375,0.16015625,5.92578125
0.157,-6.005859375,1.0810546875,4.96484375
0.1575,-5.60546875,2.3623046875,3.5634765625
0.158,-5.205078125,3.763671875,1.9619140625
0.1585,-5.0048828125,4.8046875,0.9208984375
0.159,-4.6044921875,5.365234375,0.16015625
0.1595,-3.8837890625,5.525390625,-0.720703125
0.16,-2.642578125,5.5654296875,-1.8818359375
0.1605,-1.1611328125,5.525390625,-3.4033203125
0.161,0.240234375,5.5654296875,-4.8046875
0.1615,0.8408203125,5.7255859375,-5.685546875
0.162,1.521484375,5.60546875,-6.2861328125
0.1625,2.482421875,4.8046875,-6.56640625
0.163,3.8037109375,3.283203125,-6.6865234375
0.1635,4.96484375,1.76171875,-6.56640625
0.164,5.7255859375,0.6005859375,-6.56640625
0.1645,5.92578125,-0.16015625,-6.4462890625
0.165,5.765625,-0.8408203125,-5.92578125
0.1655,5.4052734375,-1.841796875,-4.8447265625
0.166,5.044921875,-3.1630859375,-3.4033203125
0.1665,4.7646484375,-4.5244140625,-1.9619140625
0.167,4.5244140625,-5.4052734375,-1.041015625
0.1675,4.2041015625,-5.92578125,-0.3603515625
0.168,3.4033203125,-6.0859375,0.560546875
0.1685,2.08203125,-6.166015625,1.841796875
0.169,0.48046875,-6.1259765625,3.4033203125
0.1695,-0.640625,-6.3662109375,4.64453125
0.17,-1.201171875,-6.40625,5.4453125
0.1705,-1.9619140625,-6.1259765625,6.005859375
0.171,-3.0830078125,-5.125,6.24609375
0.1715,-4.2841796875,-3.68359375,6.3662109375
0.172,-5.4052734375,-2.2021484375,6.3662109375
0.1725,-6.0458984375,-1.28125,6.3662109375
0.173,-6.1259765625,-0.640625,6.1259765625
0.1735,-5.92578125,0.16015625,5.5654296875
0.174,-5.60546875,1.2412109375,4.4443359375
0.1745,-5.28515625,2.6025390625,2.9228515625
0.175,-5.0849609375,3.8837890625,1.681640625
0.1755,-4.884765625,4.64453125,0.880859375
0.176,-4.4443359375,5.0849609375,0.2001953125
0.1765,-3.5234375,5.1650390625,-0.8408203125
0.177,-2.162109375,5.2451171875,-2.2421875
0.1775,-0.7607421875,5.28515625,-3.7236328125
0.178,0.16015625,5.60546875,-4.8447265625
0.1785,0.7607421875,5.7255859375,-5.5654296875
0.179,1.5615234375,5.205078125,-6.0458984375
0.1795,2.802734375,4.0439453125,-6.2861328125
0.18,4.0439453125,2.5625,-6.326171875
0.1805,5.044921875,1.28125,-6.3662109375
0.181,5.4853515625,0.560546875,-6.3662109375
0.1815,5.5654296875,-0.16015625,-6.1259765625
0.182,5.3251953125,-0.9609375,-5.4052734375
0.1825,5.0048828125,-2.1220703125,-4.1640625
0.183,4.724609375,-3.4833984375,-2.7626953125
0.1835,4.6044921875,-4.64453125,-1.681640625
0.184,4.4443359375,-5.28515625,-1.0009765625
0.1845,3.84375,-5.6455078125,-0.2802734375
0.185,2.802734375,-5.765625,0.880859375
0.1855,1.4013671875,-5.845703125,2.2822265625
0.186,0.2001953125,-5.9658203125,3.68359375
0.1865,-0.6005859375,-6.24609375,4.64453125
0.187,-1.201171875,-6.24609375,5.365234375
0.1875,-2.0419921875,-5.6455078125,5.765625
0.188,-3.283203125,-4.404296875,5.92578125
0.1885,-4.484375,-3.0029296875,6.005859375
0.189,-5.365234375,-1.8818359375,6.0859375
0.1895,-5.685546875,-1.28125,6.0859375
0.19,-5.685546875,-0.640625,5.7255859375
0.1905,-5.4453125,0.2802734375,4.9248046875
0.191,-5.1650390625,1.4814453125,3.763671875
0.1915,-4.96484375,2.802734375,2.4423828125
0.192,-4.884765625,3.84375,1.5615234375
0.1925,-4.64453125,4.4443359375,0.880859375
0.193,-4.083984375,4.724609375,0.16015625
0.1935,-3.04296875,4.8447265625,-1.12109375
0.194,-1.681640625,5.044921875,-2.5224609375
0.1945,-0.6806640625,5.28515625,-3.8037109375
0.195,0.0400390625,5.60546875,-4.724609375
0.1955,0.7607421875,5.4453125,-5.4052734375
0.196,1.76171875,4.6845703125,-5.7255859375
0.1965,2.962890625,3.443359375,-5.92578125
0.197,4.1240234375,2.08203125,-6.0458984375
0.1975,4.9248046875,1.201171875,-6.2060546875
0.198,5.1650390625,0.6005859375,-6.166015625
0.1985,5.125,0.0,-5.765625
0.199,4.9248046875,-1.1611328125,-4.8447265625
0.1995,4.724609375,-2.3623046875,-3.603515625
0.2,4.6044921875,-3.603515625,-2.4423828125
0.2005,4.484375,-4.564453125,-1.681640625
0.201,4.2041015625,-5.125,-1.0009765625
0.2015,3.4033203125,-5.3251953125,-0.16015625
0.202,2.322265625,-5.4853515625,1.201171875
0.2025,1.041015625,-5.6455078125,2.6025390625
0.203,0.240234375,-5.92578125,3.7236328125
0.2035,-0.48046875,-6.166015625,4.6044921875
0.204,-1.2412109375,-5.92578125,5.1650390625
0.2045,-2.2822265625,-5.0048828125,5.4453125
0.205,-3.5234375,-3.8037109375,5.60546875
0.2055,-4.564453125,-2.5625,5.765625
0.206,-5.1650390625,-1.841796875,5.92578125
0.2065,-5.3251953125,-1.28125,5.8056640625
0.207,-5.28515625,-0.6005859375,5.3251953125
0.2075,-5.0849609375,0.5205078125,4.404296875
0.208,-4.884765625,1.76171875,3.1630859375
0.2085,-4.884765625,2.9228515625,2.2421875
0.209,-4.7646484375,3.68359375,1.521484375
0.2095,-4.484375,4.1240234375,0.8408203125
0.21,-3.6435546875,4.484375,-0.2001953125
0.2105,-2.5625,4.724609375,-1.44140625
0.211,-1.44140625,4.96484375,-2.802734375
0.2115,-0.720703125,5.365234375,-3.84375
0.212,0.0,5.4853515625,-4.6845703125
0.2125,0.8408203125,5.0849609375,-5.205078125
0.213,2.0419921875,4.1240234375,-5.525390625
0.2135,3.2431640625,2.8427734375,-5.7255859375
0.214,4.244140625,1.841796875,-5.92578125
0.2145,4.7646484375,1.201171875,-6.1259765625
0.215,4.9248046875,0.6005859375,-5.92578125
0.2155,4.8046875,-0.3203125,-5.28515625
0.216,4.64453125,-1.44140625,-4.2841796875
0.2165,4.5244140625,-2.72265625,-3.1630859375
0.217,4.5244140625,-3.84375,-2.2822265625
0.2175,4.4443359375,-4.564453125,-1.6416015625
0.218,3.9638671875,-4.96484375,-0.8408203125
0.2185,3.04296875,-5.2451171875,0.3603515625
0.219,1.8017578125,-5.4453125,1.76171875
0.2195,0.8408203125,-5.765625,3.04296875
0.22,0.16015625,-6.1259765625,4.00390625
0.2205,-0.640625,-6.1259765625,4.7646484375
0.221,-1.6015625,-5.4453125,5.1650390625
0.2215,-2.8427734375,-4.3642578125,5.4052734375
0.222,-4.00390625,-3.0830078125,5.6455078125
0.2225,-4.8447265625,-2.2021484375,5.8857421875
0.223,-5.205078125,-1.6015625,5.8857421875
0.2235,-5.28515625,-1.0009765625,5.5654296875
0.224,-5.125,0.0400390625,4.8046875
0.2245,-4.96484375,1.2412109375,3.68359375
0.225,-4.9248046875,2.5224609375,2.5224609375
0.2255,-4.884765625,3.443359375,1.76171875
0.226,-4.64453125,4.083984375,1.12109375
0.2265,-3.9638671875,4.4443359375,0.2802734375
0.227,-2.9228515625,4.64453125,-1.0810546875
0.2275,-1.7216796875,4.9248046875,-2.482421875
0.228,-0.9208984375,5.28515625,-3.68359375
