wavelength,x,y,z
0.0,19.028564453125,-0.910888671875,-17.326904296875
0.0005,17.306884765625,3.173095703125,-19.689208984375
0.001,15.385009765625,6.696533203125,-21.370849609375
0.0015,11.701416015625,9.819580078125,-20.930419921875
0.002,7.977783203125,13.182861328125,-20.650146484375
0.0025,3.373291015625,16.706298828125,-19.889404296875
0.003,-1.791748046875,19.509033203125,-17.807373046875
0.0035,-5.235107421875,20.990478515625,-16.005615234375
0.004,-8.398193359375,21.791259765625,-13.843505859375
0.0045,-11.721435546875,21.230712890625,-10.159912109375
0.005,-15.364990234375,20.229736328125,-5.635498046875
0.0055,-18.247802734375,19.108642578125,-1.751708984375
0.006,-20.650146484375,17.026611328125,2.812744140625
0.0065,-21.851318359375,14.824462890625,6.135986328125
0.007,-21.531005859375,11.341064453125,9.259033203125
0.0075,-21.090576171875,7.577392578125,12.502197265625
0.008,-20.329833984375,3.173095703125,16.145751953125
0.0085,-18.728271484375,-1.271240234375,18.908447265625
0.009,-16.806396484375,-4.994873046875,20.750244140625
0.0095,-14.724365234375,-8.278076171875,22.071533203125
0.01,-10.640380859375,-11.481201171875,21.390869140625
0.0105,-6.156005859375,-15.044677734375,20.630126953125
0.011,-1.871826171875,-18.087646484375,19.709228515625
0.0115,3.293212890625,-20.650146484375,17.386962890625
0.012,6.536376953125,-21.771240234375,15.545166015625
0.0125,9.739501953125,-21.931396484375,12.542236328125
0.013,13.022705078125,-21.410888671875,8.978759765625
0.0135,16.706298828125,-20.249755859375,4.214111328125
0.014,19.509033203125,-18.568115234375,-0.270263671875
0.0145,21.470947265625,-16.606201171875,-4.154052734375
0.015,22.311767578125,-14.163818359375,-7.317138671875
0.0155,21.631103515625,-10.199951171875,-10.560302734375
0.016,20.950439453125,-6.156005859375,-13.923583984375
0.0165,20.189697265625,-2.192138671875,-17.166748046875
0.017,18.267822265625,2.532470703125,-19.929443359375
0.0175,16.145751953125,6.055908203125,-21.370849609375
0.018,13.423095703125,9.339111328125,-22.011474609375
0.0185,9.339111328125,12.702392578125,-21.490966796875
0.019,4.294189453125,16.466064453125,-20.449951171875
0.0195,-0.190185546875,19.268798828125,-19.048583984375
0.02,-4.714599609375,21.470947265625,-17.006591796875
0.0205,-7.917724609375,22.431884765625,-14.924560546875
0.021,-11.361083984375,22.031494140625,-11.240966796875
0.0215,-14.644287109375,21.430908203125,-7.557373046875
0.022,-18.087646484375,20.229736328125,-3.032958984375
0.0225,-20.810302734375,17.987548828125,1.971923828125
0.023,-22.251708984375,15.865478515625,5.455322265625
0.0235,-22.692138671875,12.942626953125,8.738525390625
0.024,-21.931396484375,8.658447265625,12.221923828125
0.0245,-21.050537109375,4.174072265625,15.745361328125
0.025,-20.049560546875,0.170166015625,18.788330078125
0.0255,-18.007568359375,-4.514404296875,21.430908203125
0.026,-15.685302734375,-7.757568359375,22.471923828125
0.0265,-12.201904296875,-11.080810546875,22.471923828125
0.027,-7.957763671875,-14.684326171875,21.991455078125
0.0275,-2.712646484375,-18.247802734375,20.670166015625
0.028,2.332275390625,-20.810302734375,18.548095703125
0.0285,6.135986328125,-22.572021484375,16.666259765625
0.029,9.459228515625,-23.092529296875,14.063720703125
0.0295,13.142822265625,-22.331787109375,9.739501953125
0.03,16.506103515625,-21.490966796875,5.615478515625
0.0305,19.829345703125,-20.089599609375,1.091064453125
0.031,22.351806640625,-17.647216796875,-3.913818359375
0.0315,23.152587890625,-15.244873046875,-7.076904296875
0.032,23.192626953125,-11.721435546875,-10.520263671875
0.0325,22.271728515625,-7.277099609375,-14.123779296875
0.033,21.190673828125,-2.872802734375,-17.487060546875
0.0335,19.509033203125,1.571533203125,-20.249755859375
0.034,17.467041015625,5.935791015625,-22.491943359375
0.0345,14.584228515625,9.259033203125,-23.052490234375
0.035,10.380126953125,12.782470703125,-22.572021484375
0.0355,5.935791015625,16.345947265625,-21.891357421875
0.036,0.850830078125,19.709228515625,-20.449951171875
0.0365,-4.314208984375,22.031494140625,-17.927490234375
0.037,-7.677490234375,23.232666015625,-16.005615234375
0.0375,-11.080810546875,23.392822265625,-12.922607421875
0.038,-14.724365234375,22.351806640625,-8.358154296875
0.0385,-18.007568359375,21.230712890625,-4.114013671875
0.039,-21.010498046875,19.348876953125,0.770751953125
0.0395,-23.132568359375,16.906494140625,5.295166015625
0.04,-23.412841796875,14.063720703125,8.378173828125
0.0405,-23.052490234375,10.019775390625,11.941650390625
0.041,-22.091552734375,5.455322265625,15.545166015625
0.0415,-21.050537109375,1.051025390625,18.908447265625
0.042,-18.888427734375,-3.513427734375,21.270751953125
0.0425,-16.846435546875,-7.197021484375,23.032470703125
0.043,-13.683349609375,-10.520263671875,23.312744140625
0.0435,-8.998779296875,-14.043701171875,22.431884765625
0.044,-4.514404296875,-17.366943359375,21.470947265625
0.0445,0.690673828125,-20.489990234375,19.709228515625
0.045,5.415283203125,-22.531982421875,17.306884765625
0.0455,8.458251953125,-23.092529296875,15.064697265625
0.046,11.981689453125,-23.052490234375,11.581298828125
0.0465,15.665283203125,-21.931396484375,6.936767578125
0.047,18.828369140625,-20.650146484375,2.612548828125
0.0475,21.470947265625,-18.568115234375,-2.112060546875
0.048,23.232666015625,-16.365966796875,-6.035888671875
0.0485,23.072509765625,-13.082763671875,-9.158935546875
0.049,22.431884765625,-8.798583984375,-12.802490234375
0.0495,21.510986328125,-4.634521484375,-16.005615234375
0.05,20.349853515625,-0.150146484375,-19.288818359375
0.0505,17.987548828125,4.454345703125,-21.490966796875
0.051,15.785400390625,7.697509765625,-22.572021484375
0.0515,12.422119140625,11.020751953125,-22.772216796875
0.052,7.337158203125,14.864501953125,-21.771240234375
0.0525,3.012939453125,17.987548828125,-20.730224609375
0.053,-2.072021484375,20.750244140625,-18.728271484375
0.0535,-6.276123046875,22.672119140625,-16.726318359375
0.054,-9.279052734375,22.752197265625,-14.003662109375
0.0545,-12.802490234375,22.431884765625,-10.320068359375
0.055,-16.365966796875,21.430908203125,-5.835693359375
0.0555,-19.489013671875,19.869384765625,-1.271240234375
0.056,-21.731201171875,17.587158203125,3.253173828125
0.0565,-22.972412109375,15.304931640625,6.696533203125
0.057,-22.772216796875,11.701416015625,9.979736328125
0.0575,-21.931396484375,7.016845703125,13.903564453125
0.058,-21.090576171875,3.173095703125,16.866455078125
0.0585,-19.609130859375,-1.431396484375,19.949462890625
0.059,-17.406982421875,-5.755615234375,22.111572265625
0.0595,-14.764404296875,-8.718505859375,22.552001953125
0.06,-11.240966796875,-12.121826171875,22.552001953125
0.0605,-6.115966796875,-16.005615234375,21.551025390625
0.061,-1.351318359375,-18.968505859375,20.109619140625
0.0615,3.333251953125,-21.210693359375,17.947509765625
0.062,7.016845703125,-22.812255859375,16.145751953125
0.0625,10.219970703125,-22.612060546875,12.822509765625
0.063,13.823486328125,-21.891357421875,8.658447265625
0.0635,17.226806640625,-21.090576171875,4.614501953125
0.064,20.349853515625,-19.208740234375,-0.390380859375
0.0645,22.271728515625,-16.966552734375,-4.554443359375
0.065,22.792236328125,-14.364013671875,-7.677490234375
0.0655,22.552001953125,-10.760498046875,-11.000732421875
0.066,21.591064453125,-5.755615234375,-14.924560546875
0.0665,20.590087890625,-1.871826171875,-17.807373046875
0.067,18.788330078125,2.532470703125,-20.369873046875
0.0675,16.746337890625,6.536376953125,-22.451904296875
0.068,13.262939453125,9.699462890625,-22.211669921875
0.0685,9.459228515625,13.102783203125,-21.971435546875
0.069,4.614501953125,16.826416015625,-21.130615234375
0.0695,-0.590576171875,19.869384765625,-19.288818359375
0.07,-4.754638671875,21.711181640625,-17.246826171875
0.0705,-8.037841796875,22.832275390625,-15.204833984375
0.071,-11.401123046875,22.471923828125,-11.681396484375
0.0715,-15.204833984375,21.430908203125,-6.996826171875
0.072,-18.127685546875,20.469970703125,-3.193115234375
0.0725,-20.930419921875,18.307861328125,1.731689453125
0.073,-22.572021484375,16.065673828125,5.615478515625
0.0735,-22.451904296875,12.782470703125,8.658447265625
0.074,-22.131591796875,9.018798828125,12.101806640625
0.0745,-21.210693359375,4.294189453125,15.905517578125
0.075,-19.929443359375,0.010009765625,18.908447265625
0.0755,-17.887451171875,-4.114013671875,20.950439453125
0.076,-16.005615234375,-7.597412109375,22.672119140625
0.0765,-12.201904296875,-10.840576171875,22.231689453125
0.077,-7.677490234375,-14.444091796875,21.510986328125
0.0775,-3.393310546875,-17.647216796875,20.710205078125
0.078,1.931884765625,-20.489990234375,18.508056640625
0.0785,5.735595703125,-22.051513671875,16.506103515625
0.079,8.818603515625,-22.411865234375,13.943603515625
0.0795,12.181884765625,-22.131591796875,10.500244140625
0.08,16.065673828125,-20.970458984375,5.575439453125
0.0805,18.908447265625,-19.649169921875,1.451416015625
0.081,21.190673828125,-17.607177734375,-2.872802734375
0.0815,22.552001953125,-15.445068359375,-6.396240234375
0.082,22.031494140625,-11.681396484375,-9.439208984375
0.0825,21.470947265625,-7.557373046875,-13.002685546875
0.083,20.750244140625,-3.553466796875,-16.325927734375
0.0835,19.148681640625,1.131103515625,-19.288818359375
0.084,16.946533203125,4.974853515625,-21.050537109375
0.0845,14.624267578125,8.177978515625,-22.011474609375
0.085,10.940673828125,11.461181640625,-21.771240234375
0.0855,5.775634765625,15.385009765625,-20.770263671875
0.086,1.771728515625,18.147705078125,-19.729248046875
0.0865,-3.072998046875,20.630126953125,-17.687255859375
0.087,-6.636474609375,22.071533203125,-15.805419921875
0.0875,-9.719482421875,21.751220703125,-12.562255859375
0.088,-12.962646484375,21.390869140625,-9.078857421875
0.0885,-16.606201171875,20.349853515625,-4.554443359375
0.089,-19.408935546875,18.427978515625,0.170166015625
0.0895,-21.130615234375,16.385986328125,3.853759765625
0.09,-22.051513671875,14.063720703125,7.056884765625
0.0905,-21.490966796875,10.260009765625,10.219970703125
0.091,-20.650146484375,5.735595703125,13.983642578125
0.0915,-19.929443359375,2.052001953125,16.826416015625
0.092,-18.287841796875,-2.352294921875,19.589111328125
0.0925,-16.205810546875,-5.955810546875,21.230712890625
0.093,-13.282958984375,-8.918701171875,21.310791015625
0.0935,-9.839599609375,-12.121826171875,21.230712890625
0.094,-4.634521484375,-15.965576171875,20.189697265625
0.0945,0.010009765625,-18.608154296875,18.508056640625
0.095,3.813720703125,-20.489990234375,16.786376953125
0.0955,7.096923828125,-21.651123046875,14.864501953125
0.096,10.300048828125,-21.130615234375,11.220947265625
0.0965,13.743408203125,-20.489990234375,7.297119140625
0.097,16.906494140625,-19.729248046875,3.453369140625
0.0975,19.549072265625,-17.647216796875,-1.271240234375
0.098,20.950439453125,-15.685302734375,-4.514404296875
0.0985,21.150634765625,-12.842529296875,-7.557373046875
0.099,20.750244140625,-9.319091796875,-10.600341796875
0.0995,19.909423828125,-4.794677734375,-14.243896484375
0.1,18.868408203125,-0.990966796875,-17.006591796875
0.1005,17.226806640625,2.932861328125,-19.248779296875
0.101,15.344970703125,6.336181640625,-20.850341796875
0.1015,11.701416015625,9.339111328125,-20.369873046875
0.102,7.977783203125,12.702392578125,-20.169677734375
0.1025,3.533447265625,16.145751953125,-19.408935546875
0.103,-1.431396484375,18.788330078125,-17.326904296875
0.1035,-4.634521484375,20.229736328125,-15.845458984375
0.104,-7.717529296875,20.990478515625,-13.683349609375
0.1045,-10.840576171875,20.469970703125,-10.239990234375
0.105,-14.364013671875,19.509033203125,-5.915771484375
0.1055,-17.126708984375,18.468017578125,-2.192138671875
0.106,-19.368896484375,16.586181640625,1.971923828125
0.1065,-20.489990234375,14.584228515625,5.054931640625
0.107,-20.169677734375,11.301025390625,7.977783203125
0.1075,-19.849365234375,7.777587890625,11.100830078125
0.108,-19.248779296875,3.693603515625,14.584228515625
0.1085,-17.807373046875,-0.510498046875,17.306884765625
0.109,-16.165771484375,-3.833740234375,19.068603515625
0.1095,-14.283935546875,-6.916748046875,20.349853515625
0.11,-10.640380859375,-9.919677734375,19.829345703125
0.1105,-6.396240234375,-13.403076171875,19.228759765625
0.111,-2.392333984375,-16.365966796875,18.427978515625
0.1115,2.212158203125,-18.728271484375,16.506103515625
0.112,5.135009765625,-19.969482421875,15.024658203125
0.1125,8.097900390625,-20.129638671875,12.302001953125
0.113,11.140869140625,-19.809326171875,9.138916015625
0.1135,14.624267578125,-18.968505859375,4.854736328125
0.114,17.306884765625,-17.447021484375,0.810791015625
0.1145,19.068603515625,-15.805419921875,-2.552490234375
0.115,19.869384765625,-13.723388671875,-5.435302734375
0.1155,19.348876953125,-10.280029296875,-8.278076171875
0.116,18.908447265625,-6.516357421875,-11.561279296875
0.1165,18.468017578125,-2.952880859375,-14.684326171875
0.117,16.946533203125,1.211181640625,-17.286865234375
0.1175,15.224853515625,4.334228515625,-18.728271484375
0.118,12.822509765625,7.257080078125,-19.368896484375
0.1185,9.459228515625,10.219970703125,-19.168701171875
0.119,4.854736328125,13.863525390625,-18.407958984375
0.1195,0.850830078125,16.586181640625,-17.286865234375
0.12,-2.912841796875,18.588134765625,-15.765380859375
0.1205,-5.835693359375,19.669189453125,-14.163818359375
0.121,-8.838623046875,19.308837890625,-11.040771484375
0.1215,-11.921630859375,18.948486328125,-7.757568359375
0.122,-15.084716796875,18.267822265625,-3.913818359375
0.1225,-17.567138671875,16.466064453125,0.370361328125
0.123,-18.888427734375,14.864501953125,3.213134765625
0.1235,-19.368896484375,12.422119140625,6.095947265625
0.124,-18.928466796875,8.978759765625,9.018798828125
0.1245,-18.367919921875,5.054931640625,12.462158203125
0.125,-17.687255859375,1.451416015625,15.344970703125
0.1255,-16.325927734375,-2.352294921875,17.747314453125
0.126,-14.604248046875,-5.315185546875,19.028564453125
0.1265,-11.561279296875,-8.197998046875,18.988525390625
0.127,-8.157958984375,-11.401123046875,18.948486328125
0.1275,-3.713623046875,-14.764404296875,18.107666015625
0.128,0.690673828125,-17.246826171875,16.426025390625
0.1285,3.693603515625,-18.888427734375,15.264892578125
0.129,6.656494140625,-19.689208984375,13.262939453125
0.1295,9.699462890625,-19.208740234375,9.819580078125
0.13,12.942626953125,-18.568115234375,6.216064453125
0.1305,15.865478515625,-17.727294921875,2.492431640625
0.131,18.187744140625,-15.965576171875,-1.591552734375
0.1315,19.068603515625,-14.163818359375,-4.194091796875
0.132,19.148681640625,-11.281005859375,-7.116943359375
0.1325,18.708251953125,-7.797607421875,-10.199951171875
0.133,18.227783203125,-3.913818359375,-13.483154296875
0.1335,16.986572265625,0.010009765625,-16.165771484375
0.134,15.625244140625,3.373291015625,-18.207763671875
0.1345,13.543212890625,6.376220703125,-19.208740234375
0.135,10.059814453125,9.299072265625,-18.848388671875
0.1355,6.336181640625,12.662353515625,-18.568115234375
0.136,2.172119140625,15.825439453125,-17.767333984375
0.1365,-2.272216796875,18.067626953125,-15.885498046875
0.137,-4.914794921875,19.228759765625,-14.604248046875
0.1375,-7.917724609375,19.549072265625,-12.201904296875
0.138,-11.040771484375,19.068603515625,-8.598388671875
0.1385,-14.203857421875,18.347900390625,-4.834716796875
0.139,-16.886474609375,16.946533203125,-0.830810546875
0.1395,-18.888427734375,15.264892578125,2.852783203125
0.14,-19.408935546875,13.022705078125,5.535400390625
0.1405,-19.088623046875,9.619384765625,8.538330078125
0.141,-18.648193359375,6.015869140625,11.741455078125
0.1415,-18.087646484375,2.252197265625,14.944580078125
0.142,-16.526123046875,-1.791748046875,17.346923828125
0.1425,-15.044677734375,-4.714599609375,18.868408203125
0.143,-12.642333984375,-7.717529296875,19.509033203125
0.1435,-8.798583984375,-10.800537109375,18.948486328125
0.144,-4.834716796875,-13.963623046875,18.307861328125
0.1445,-0.590576171875,-16.806396484375,17.106689453125
0.145,3.413330078125,-18.848388671875,15.465087890625
0.1455,5.975830078125,-19.529052734375,13.703369140625
0.146,9.018798828125,-19.408935546875,10.780517578125
0.1465,12.302001953125,-18.848388671875,7.096923828125
0.147,15.304931640625,-17.967529296875,3.333251953125
0.1475,17.627197265625,-16.285888671875,-0.710693359375
0.148,19.188720703125,-14.684326171875,-3.793701171875
0.1485,19.348876953125,-12.041748046875,-6.556396484375
0.149,18.828369140625,-8.398193359375,-9.639404296875
0.1495,18.267822265625,-4.954833984375,-12.562255859375
0.15,17.547119140625,-1.191162109375,-15.565185546875
0.1505,15.905517578125,2.732666015625,-17.807373046875
0.151,14.103759765625,5.415283203125,-18.768310546875
0.1515,11.341064453125,8.338134765625,-19.048583984375
0.152,7.337158203125,11.701416015625,-18.568115234375
0.1525,3.333251953125,14.744384765625,-17.847412109375
0.153,-0.990966796875,17.146728515625,-16.205810546875
0.1535,-4.234130859375,18.948486328125,-15.004638671875
0.154,-6.916748046875,19.348876953125,-12.802490234375
0.1545,-9.959716796875,18.948486328125,-9.599365234375
0.155,-13.082763671875,18.508056640625,-6.075927734375
0.1555,-16.005615234375,17.346923828125,-2.112060546875
0.156,-18.127685546875,15.545166015625,1.771728515625
0.1565,-19.088623046875,13.783447265625,4.494384765625
0.157,-19.168701171875,10.940673828125,7.337158203125
0.1575,-18.568115234375,7.016845703125,10.700439453125
0.158,-18.047607421875,3.573486328125,13.583251953125
0.1585,-16.926513671875,-0.270263671875,16.265869140625
0.159,-15.485107421875,-3.833740234375,18.427978515625
0.1595,-13.282958984375,-6.436279296875,18.908447265625
0.16,-10.239990234375,-9.319091796875,18.868408203125
0.1605,-6.236083984375,-12.802490234375,18.468017578125
0.161,-1.951904296875,-15.805419921875,17.346923828125
0.1615,2.092041015625,-17.887451171875,15.705322265625
0.162,4.894775390625,-19.208740234375,14.464111328125
0.1625,7.777587890625,-19.368896484375,11.901611328125
0.163,11.020751953125,-18.768310546875,8.218017578125
0.1635,13.983642578125,-18.287841796875,4.854736328125
0.164,16.786376953125,-16.886474609375,0.770751953125
0.1645,18.788330078125,-15.244873046875,-2.912841796875
0.165,19.148681640625,-12.962646484375,-5.475341796875
0.1655,19.068603515625,-9.879638671875,-8.398193359375
0.166,18.508056640625,-5.915771484375,-11.841552734375
0.1665,17.907470703125,-2.312255859375,-14.764404296875
0.167,16.385986328125,1.451416015625,-17.006591796875
0.1675,15.024658203125,4.654541015625,-18.928466796875
0.168,12.221923828125,7.537353515625,-19.088623046875
0.1685,8.578369140625,10.620361328125,-18.728271484375
0.169,4.854736328125,13.823486328125,-18.367919921875
0.1695,0.290283203125,16.786376953125,-16.926513671875
0.17,-3.553466796875,18.708251953125,-15.364990234375
0.1705,-6.196044921875,19.509033203125,-13.643310546875
0.171,-9.158935546875,19.509033203125,-10.880615234375
0.1715,-12.682373046875,18.748291015625,-6.716552734375
0.172,-15.405029296875,17.947509765625,-3.273193359375
0.1725,-17.807373046875,16.305908203125,0.730712890625
0.173,-19.529052734375,14.584228515625,4.134033203125
0.1735,-19.448974609375,11.701416015625,6.856689453125
0.174,-19.128662109375,8.218017578125,10.019775390625
0.1745,-18.608154296875,4.494384765625,13.222900390625
0.175,-17.647216796875,0.530517578125,16.265869140625
0.1755,-15.965576171875,-3.193115234375,18.227783203125
0.176,-14.364013671875,-5.995849609375,19.468994140625
0.1765,-11.361083984375,-8.958740234375,19.549072265625
0.177,-6.956787109375,-12.522216796875,18.908447265625
0.1775,-3.233154296875,-15.284912109375,18.227783203125
0.178,1.291259765625,-17.847412109375,16.506103515625
0.1785,4.694580078125,-19.569091796875,15.064697265625
0.179,7.377197265625,-19.729248046875,12.662353515625
0.1795,10.340087890625,-19.569091796875,9.659423828125
0.18,13.943603515625,-18.848388671875,5.495361328125
0.1805,16.706298828125,-17.607177734375,1.531494140625
0.181,18.748291015625,-15.885498046875,-2.192138671875
