wavelength,x,y,z
0.0,-6.42626953125,9.14892578125,-2.94287109375
0.0005,-7.38720703125,8.46826171875,-1.42138671875
0.001,-8.18798828125,7.54736328125,0.30029296875
0.0015,-8.74853515625,6.18603515625,2.22216796875
0.002,-9.26904296875,5.30517578125,3.70361328125
0.0025,-9.26904296875,3.82373046875,5.22509765625
0.003,-8.62841796875,1.94189453125,6.50634765625
0.0035,-8.02783203125,0.22021484375,7.66748046875
0.004,-6.74658203125,-1.86181640625,8.38818359375
0.0045,-5.46533203125,-3.86376953125,9.10888671875
0.005,-3.86376953125,-5.46533203125,9.10888671875
0.0055,-2.10205078125,-6.98681640625,8.82861328125
0.006,-0.54052734375,-8.02783203125,8.34814453125
0.0065,1.14111328125,-9.02880859375,7.74755859375
0.007,3.18310546875,-9.66943359375,6.42626953125
0.0075,4.70458984375,-10.10986328125,5.38525390625
0.008,6.02587890625,-9.94970703125,3.98388671875
0.0085,7.10693359375,-9.46923828125,2.42236328125
0.009,7.98779296875,-8.74853515625,0.78076171875
0.0095,8.62841796875,-7.58740234375,-1.06103515625
0.01,9.26904296875,-6.26611328125,-2.94287109375
0.0105,9.50927734375,-5.14501953125,-4.30419921875
0.011,9.30908203125,-3.42333984375,-5.90576171875
0.0115,8.54833984375,-1.58154296875,-6.98681640625
0.012,7.86767578125,0.22021484375,-7.98779296875
0.0125,6.38623046875,2.30224609375,-8.66845703125
0.013,5.14501953125,4.18408203125,-9.30908203125
0.0135,3.38330078125,5.70556640625,-9.02880859375
0.014,1.70166015625,7.06689453125,-8.74853515625
0.0145,0.14013671875,8.06787109375,-8.18798828125
0.015,-1.62158203125,8.90869140625,-7.34716796875
0.0155,-3.62353515625,9.54931640625,-6.06591796875
0.016,-4.98486328125,9.66943359375,-4.94482421875
0.0165,-6.26611328125,9.34912109375,-3.42333984375
0.017,-7.26708984375,8.66845703125,-1.78173828125
0.0175,-8.14794921875,7.94775390625,-0.18017578125
0.018,-8.62841796875,6.58642578125,1.78173828125
0.0185,-9.26904296875,5.50537109375,3.54345703125
0.019,-9.30908203125,4.22412109375,4.82470703125
0.0195,-8.94873046875,2.42236328125,6.38623046875
0.02,-8.26806640625,0.66064453125,7.38720703125
0.0205,-7.34716796875,-1.22119140625,8.30810546875
0.021,-5.74560546875,-3.46337890625,8.98876953125
0.0215,-4.34423828125,-5.14501953125,9.26904296875
0.022,-2.54248046875,-6.66650390625,8.94873046875
0.0225,-0.98095703125,-7.82763671875,8.54833984375
0.023,0.66064453125,-8.78857421875,7.94775390625
0.0235,2.54248046875,-9.42919921875,6.78662109375
0.024,4.38427734375,-10.06982421875,5.66552734375
0.0245,5.50537109375,-9.98974609375,4.46435546875
0.025,6.78662109375,-9.62939453125,2.90283203125
0.0255,7.66748046875,-8.90869140625,1.30126953125
0.026,8.38818359375,-7.98779296875,-0.34033203125
0.0265,8.86865234375,-6.54638671875,-2.26220703125
0.027,9.42919921875,-5.58544921875,-3.78369140625
0.0275,9.26904296875,-4.10400390625,-5.10498046875
0.028,8.66845703125,-2.26220703125,-6.38623046875
0.0285,7.98779296875,-0.66064453125,-7.38720703125
0.029,6.98681640625,1.22119140625,-8.14794921875
0.0295,5.62548828125,3.22314453125,-8.82861328125
0.03,4.26416015625,4.66455078125,-8.90869140625
0.0305,2.50244140625,6.14599609375,-8.58837890625
0.031,1.02099609375,7.18701171875,-8.18798828125
0.0315,-0.54052734375,8.10791015625,-7.62744140625
0.032,-2.26220703125,8.66845703125,-6.54638671875
0.0325,-3.78369140625,9.22900390625,-5.62548828125
0.033,-4.86474609375,8.98876953125,-4.34423828125
0.0335,-6.10595703125,8.62841796875,-2.86279296875
0.034,-6.90673828125,8.02783203125,-1.42138671875
0.0345,-7.66748046875,7.18701171875,0.18017578125
0.035,-8.30810546875,6.14599609375,1.90185546875
0.0355,-8.74853515625,5.34521484375,3.18310546875
0.036,-8.66845703125,3.86376953125,4.62451171875
0.0365,-8.18798828125,2.18212890625,5.82568359375
0.037,-7.62744140625,0.54052734375,6.90673828125
0.0375,-6.58642578125,-1.30126953125,7.62744140625
0.038,-5.58544921875,-3.06298828125,8.34814453125
0.0385,-4.14404296875,-4.42431640625,8.34814453125
0.039,-2.62255859375,-5.82568359375,8.26806640625
0.0395,-1.26123046875,-6.94677734375,7.98779296875
0.04,0.30029296875,-7.86767578125,7.42724609375
0.0405,1.94189453125,-8.66845703125,6.62646484375
0.041,3.18310546875,-9.14892578125,5.90576171875
0.0415,4.38427734375,-9.06884765625,4.62451171875
0.042,5.50537109375,-8.74853515625,3.26318359375
0.0425,6.54638671875,-8.30810546875,1.86181640625
0.043,7.22705078125,-7.46728515625,0.34033203125
0.0435,8.06787109375,-6.78662109375,-1.22119140625
0.044,8.46826171875,-5.90576171875,-2.50244140625
0.0445,8.42822265625,-4.38427734375,-3.98388671875
0.045,8.06787109375,-2.90283203125,-5.14501953125
0.0455,7.66748046875,-1.26123046875,-6.38623046875
0.046,6.78662109375,0.38037109375,-7.14697265625
0.0465,6.02587890625,1.98193359375,-7.98779296875
0.047,4.58447265625,3.46337890625,-7.98779296875
0.0475,3.18310546875,4.86474609375,-7.98779296875
0.048,1.86181640625,6.06591796875,-7.86767578125
0.0485,0.42041015625,6.98681640625,-7.38720703125
0.049,-1.14111328125,7.86767578125,-6.86669921875
0.0495,-2.38232421875,8.30810546875,-6.10595703125
0.05,-3.78369140625,8.34814453125,-4.78466796875
0.0505,-4.98486328125,8.18798828125,-3.46337890625
0.051,-6.10595703125,7.78759765625,-1.98193359375
0.0515,-6.90673828125,7.06689453125,-0.50048828125
0.052,-7.86767578125,6.58642578125,1.06103515625
0.0525,-8.26806640625,5.58544921875,2.42236328125
0.053,-8.14794921875,3.98388671875,3.90380859375
0.0535,-7.94775390625,2.50244140625,5.26513671875
0.054,-7.38720703125,0.74072265625,6.42626953125
0.0545,-6.58642578125,-1.06103515625,7.38720703125
0.055,-5.54541015625,-2.62255859375,7.94775390625
0.0555,-4.06396484375,-4.18408203125,8.02783203125
0.056,-2.66259765625,-5.62548828125,8.06787109375
0.0565,-1.22119140625,-6.90673828125,7.86767578125
0.057,0.46044921875,-7.78759765625,7.18701171875
0.0575,1.98193359375,-8.74853515625,6.58642578125
0.058,3.22314453125,-8.90869140625,5.62548828125
0.0585,4.66455078125,-8.86865234375,4.18408203125
0.059,5.78564453125,-8.54833984375,2.82275390625
0.0595,6.82666015625,-7.94775390625,1.22119140625
0.06,7.70751953125,-7.18701171875,-0.46044921875
0.0605,8.46826171875,-6.42626953125,-1.94189453125
0.061,8.58837890625,-5.10498046875,-3.46337890625
0.0615,8.30810546875,-3.42333984375,-4.86474609375
0.062,7.90771484375,-1.78173828125,-6.14599609375
0.0625,7.06689453125,0.02001953125,-7.06689453125
0.063,6.22607421875,1.94189453125,-8.02783203125
0.0635,4.82470703125,3.46337890625,-8.26806640625
0.064,3.18310546875,5.06494140625,-8.26806640625
0.0645,1.86181640625,6.26611328125,-8.06787109375
0.065,0.26025390625,7.34716796875,-7.62744140625
0.0655,-1.58154296875,8.18798828125,-6.74658203125
0.066,-3.14306640625,8.82861328125,-5.86572265625
0.0665,-4.42431640625,8.70849609375,-4.54443359375
0.067,-5.74560546875,8.50830078125,-3.02294921875
0.0675,-6.74658203125,7.98779296875,-1.54150390625
0.068,-7.58740234375,7.06689453125,0.30029296875
0.0685,-8.46826171875,6.10595703125,2.06201171875
0.069,-8.78857421875,5.10498046875,3.50341796875
0.0695,-8.66845703125,3.38330078125,5.10498046875
0.07,-8.18798828125,1.66162109375,6.34619140625
0.0705,-7.54736328125,-0.14013671875,7.42724609375
0.071,-6.26611328125,-2.26220703125,8.26806640625
0.0715,-4.90478515625,-4.22412109375,8.86865234375
0.072,-3.18310546875,-5.70556640625,8.66845703125
0.0725,-1.58154296875,-7.18701171875,8.50830078125
0.073,0.02001953125,-8.18798828125,7.98779296875
0.0735,1.78173828125,-9.02880859375,7.06689453125
0.074,3.82373046875,-9.82958984375,5.94580078125
0.0745,5.18505859375,-9.82958984375,4.66455078125
0.075,6.50634765625,-9.58935546875,3.14306640625
0.0755,7.50732421875,-8.94873046875,1.54150390625
0.076,8.34814453125,-8.10791015625,-0.18017578125
0.0765,8.94873046875,-6.70654296875,-2.18212890625
0.077,9.62939453125,-5.50537109375,-4.06396484375
0.0775,9.34912109375,-3.94384765625,-5.38525390625
0.078,8.94873046875,-2.10205078125,-6.86669921875
0.0785,8.06787109375,-0.38037109375,-7.70751953125
0.079,7.10693359375,1.54150390625,-8.62841796875
0.0795,5.50537109375,3.86376953125,-9.30908203125
0.08,3.86376953125,5.62548828125,-9.42919921875
0.0805,1.94189453125,6.98681640625,-8.90869140625
0.081,0.38037109375,8.14794921875,-8.54833984375
0.0815,-1.34130859375,8.94873046875,-7.70751953125
0.082,-3.34326171875,9.62939453125,-6.42626953125
0.0825,-5.34521484375,10.27001953125,-5.14501953125
0.083,-6.50634765625,9.66943359375,-3.46337890625
0.0835,-7.78759765625,9.26904296875,-1.78173828125
0.084,-8.46826171875,8.26806640625,-0.14013671875
0.0845,-9.06884765625,7.14697265625,1.66162109375
0.085,-9.62939453125,5.62548828125,3.82373046875
0.0855,-9.90966796875,4.14404296875,5.54541015625
0.086,-9.34912109375,2.38232421875,6.78662109375
0.0865,-8.78857421875,0.50048828125,8.06787109375
0.087,-7.70751953125,-1.30126953125,8.78857421875
0.0875,-6.30615234375,-3.34326171875,9.42919921875
0.088,-4.50439453125,-5.78564453125,10.02978515625
0.0885,-2.50244140625,-7.34716796875,9.54931640625
0.089,-0.70068359375,-8.66845703125,9.06884765625
0.0895,0.98095703125,-9.54931640625,8.34814453125
0.09,2.78271484375,-10.10986328125,7.26708984375
0.0905,4.86474609375,-10.75048828125,5.78564453125
0.091,6.62646484375,-10.95068359375,4.38427734375
0.0915,7.66748046875,-10.06982421875,2.54248046875
0.092,8.74853515625,-9.58935546875,0.98095703125
0.0925,9.26904296875,-8.30810546875,-0.78076171875
0.093,9.66943359375,-7.02685546875,-2.62255859375
0.0935,10.22998046875,-5.38525390625,-4.78466796875
0.094,9.98974609375,-3.78369140625,-6.18603515625
0.0945,9.34912109375,-1.94189453125,-7.42724609375
0.095,8.46826171875,-0.14013671875,-8.34814453125
0.0955,7.38720703125,1.62158203125,-8.98876953125
0.096,5.90576171875,3.74365234375,-9.54931640625
0.0965,4.18408203125,5.82568359375,-9.98974609375
0.097,2.14208984375,7.06689453125,-9.18896484375
0.0975,0.50048828125,8.30810546875,-8.86865234375
0.098,-1.14111328125,9.02880859375,-7.94775390625
0.0985,-2.82275390625,9.58935546875,-6.86669921875
0.099,-4.82470703125,10.18994140625,-5.46533203125
0.0995,-6.26611328125,10.02978515625,-4.02392578125
0.1,-7.30712890625,9.26904296875,-2.30224609375
0.1005,-8.26806640625,8.70849609375,-0.78076171875
0.101,-8.70849609375,7.54736328125,0.86083984375
0.1015,-9.14892578125,6.26611328125,2.62255859375
0.102,-9.70947265625,4.90478515625,4.58447265625
0.1025,-9.26904296875,3.34326171875,5.74560546875
0.103,-8.82861328125,1.58154296875,7.06689453125
0.1035,-7.98779296875,-0.18017578125,7.86767578125
0.104,-7.02685546875,-1.90185546875,8.66845703125
0.1045,-5.46533203125,-4.02392578125,9.22900390625
0.105,-3.82373046875,-5.82568359375,9.30908203125
0.1055,-1.98193359375,-7.02685546875,8.70849609375
0.106,-0.54052734375,-8.18798828125,8.50830078125
0.1065,1.06103515625,-8.86865234375,7.70751953125
0.107,2.70263671875,-9.50927734375,6.70654296875
0.1075,4.62451171875,-10.14990234375,5.54541015625
0.108,5.70556640625,-9.74951171875,4.10400390625
0.1085,6.90673828125,-9.42919921875,2.58251953125
0.109,7.66748046875,-8.62841796875,1.10107421875
0.1095,8.30810546875,-7.70751953125,-0.50048828125
0.11,8.86865234375,-6.54638671875,-2.26220703125
0.1105,9.34912109375,-5.38525390625,-3.90380859375
0.111,8.94873046875,-3.86376953125,-5.06494140625
0.1115,8.58837890625,-2.18212890625,-6.42626953125
0.112,7.74755859375,-0.62060546875,-7.18701171875
0.1125,6.94677734375,1.10107421875,-8.06787109375
0.113,5.62548828125,3.06298828125,-8.70849609375
0.1135,4.14404296875,4.54443359375,-8.70849609375
0.114,2.50244140625,5.94580078125,-8.38818359375
0.1145,1.14111328125,7.06689453125,-8.18798828125
0.115,-0.38037109375,7.82763671875,-7.54736328125
0.1155,-1.98193359375,8.58837890625,-6.66650390625
0.116,-3.62353515625,9.10888671875,-5.66552734375
0.1165,-4.66455078125,8.74853515625,-4.30419921875
0.117,-6.06591796875,8.62841796875,-2.86279296875
0.1175,-6.74658203125,7.94775390625,-1.46142578125
0.118,-7.58740234375,7.18701171875,0.18017578125
0.1185,-8.30810546875,6.22607421875,1.86181640625
0.119,-8.66845703125,5.18505859375,3.22314453125
0.1195,-8.46826171875,3.70361328125,4.50439453125
0.12,-8.18798828125,2.06201171875,5.94580078125
0.1205,-7.54736328125,0.42041015625,6.90673828125
0.121,-6.66650390625,-1.38134765625,7.74755859375
0.1215,-5.42529296875,-3.34326171875,8.38818359375
0.122,-3.86376953125,-4.66455078125,8.30810546875
0.1225,-2.42236328125,-6.14599609375,8.30810546875
0.123,-1.02099609375,-7.18701171875,7.98779296875
0.1235,0.58056640625,-8.06787109375,7.38720703125
0.124,2.26220703125,-8.90869140625,6.58642578125
0.1245,3.66357421875,-9.30908203125,5.62548828125
0.125,4.82470703125,-9.02880859375,4.26416015625
0.1255,6.10595703125,-8.86865234375,2.82275390625
0.126,6.94677734375,-8.18798828125,1.34130859375
0.1265,7.78759765625,-7.38720703125,-0.30029296875
0.127,8.58837890625,-6.46630859375,-2.06201171875
0.1275,8.70849609375,-5.30517578125,-3.34326171875
0.128,8.54833984375,-3.70361328125,-4.82470703125
0.1285,8.02783203125,-2.14208984375,-5.98583984375
0.129,7.46728515625,-0.50048828125,-7.06689453125
0.1295,6.50634765625,1.38134765625,-7.90771484375
0.13,5.30517578125,3.26318359375,-8.46826171875
0.1305,3.70361328125,4.58447265625,-8.22802734375
0.131,2.26220703125,6.10595703125,-8.30810546875
0.1315,0.82080078125,7.06689453125,-7.86767578125
0.132,-0.82080078125,7.98779296875,-7.18701171875
0.1325,-2.58251953125,8.78857421875,-6.34619140625
0.133,-3.94384765625,8.86865234375,-5.10498046875
0.1335,-5.26513671875,8.66845703125,-3.66357421875
0.134,-6.38623046875,8.30810546875,-2.18212890625
0.1345,-7.26708984375,7.58740234375,-0.62060546875
0.135,-8.06787109375,6.66650390625,1.14111328125
0.1355,-8.78857421875,5.66552734375,2.90283203125
0.136,-8.66845703125,4.22412109375,4.22412109375
0.1365,-8.54833984375,2.42236328125,5.82568359375
0.137,-7.82763671875,0.78076171875,6.78662109375
0.1375,-7.02685546875,-1.14111328125,7.74755859375
0.138,-5.74560546875,-3.14306640625,8.62841796875
0.1385,-4.14404296875,-4.86474609375,8.74853515625
0.139,-2.42236328125,-6.30615234375,8.50830078125
0.1395,-0.98095703125,-7.62744140625,8.34814453125
0.14,0.70068359375,-8.46826171875,7.62744140625
0.1405,2.54248046875,-9.26904296875,6.70654296875
0.141,4.42431640625,-9.98974609375,5.58544921875
0.1415,5.62548828125,-9.58935546875,3.98388671875
0.142,6.98681640625,-9.34912109375,2.46240234375
0.1425,7.74755859375,-8.50830078125,0.86083984375
0.143,8.50830078125,-7.50732421875,-0.98095703125
0.1435,9.26904296875,-6.26611328125,-2.90283203125
0.144,9.58935546875,-4.86474609375,-4.62451171875
0.1445,8.98876953125,-3.14306640625,-5.94580078125
0.145,8.62841796875,-1.38134765625,-7.26708984375
0.1455,7.50732421875,0.30029296875,-8.02783203125
0.146,6.46630859375,2.38232421875,-8.82861328125
0.1465,4.86474609375,4.62451171875,-9.46923828125
0.147,2.98291015625,6.14599609375,-9.10888671875
0.1475,1.30126953125,7.54736328125,-8.78857421875
0.148,-0.34033203125,8.46826171875,-8.18798828125
0.1485,-2.18212890625,9.14892578125,-7.06689453125
0.149,-4.06396484375,9.78955078125,-5.90576171875
0.1495,-5.78564453125,10.06982421875,-4.50439453125
0.15,-6.90673828125,9.26904296875,-2.66259765625
0.1505,-8.14794921875,8.90869140625,-1.10107421875
0.151,-8.66845703125,7.66748046875,0.70068359375
0.1515,-9.18896484375,6.42626953125,2.54248046875
0.152,-9.82958984375,5.02490234375,4.54443359375
0.1525,-9.62939453125,3.26318359375,6.10595703125
0.153,-8.94873046875,1.42138671875,7.30712890625
0.1535,-8.30810546875,-0.58056640625,8.30810546875
0.154,-6.86669921875,-2.34228515625,8.98876953125
0.1545,-5.46533203125,-4.34423828125,9.58935546875
0.155,-3.66357421875,-6.46630859375,9.78955078125
0.1555,-1.62158203125,-7.66748046875,9.06884765625
0.156,0.06005859375,-8.94873046875,8.70849609375
0.1565,1.82177734375,-9.62939453125,7.70751953125
0.157,3.70361328125,-10.18994140625,6.42626953125
0.1575,5.50537109375,-10.71044921875,5.14501953125
0.158,6.90673828125,-10.47021484375,3.62353515625
0.1585,7.86767578125,-9.58935546875,1.86181640625
0.159,8.78857421875,-8.86865234375,0.30029296875
0.1595,9.10888671875,-7.50732421875,-1.58154296875
0.16,9.62939453125,-6.26611328125,-3.22314453125
0.1605,9.94970703125,-4.90478515625,-5.14501953125
0.161,9.34912109375,-3.02294921875,-6.38623046875
0.1615,8.78857421875,-1.38134765625,-7.62744140625
0.162,7.70751953125,0.54052734375,-8.18798828125
0.1625,6.54638671875,2.34228515625,-8.82861328125
0.163,5.18505859375,4.26416015625,-9.38916015625
0.1635,3.42333984375,5.98583984375,-9.34912109375
0.164,1.58154296875,7.06689453125,-8.62841796875
0.1645,0.14013671875,8.22802734375,-8.30810546875
0.165,-1.54150390625,8.74853515625,-7.30712890625
0.1655,-3.14306640625,9.26904296875,-6.34619140625
0.166,-4.82470703125,9.74951171875,-5.14501953125
0.1665,-5.90576171875,9.18896484375,-3.54345703125
0.167,-7.02685546875,8.78857421875,-2.06201171875
0.1675,-7.70751953125,7.98779296875,-0.58056640625
0.168,-8.18798828125,6.90673828125,1.06103515625
0.1685,-8.82861328125,5.78564453125,2.54248046875
0.169,-9.10888671875,4.54443359375,4.34423828125
0.1695,-8.58837890625,2.94287109375,5.42529296875
0.17,-8.30810546875,1.34130859375,6.74658203125
0.1705,-7.34716796875,-0.30029296875,7.42724609375
0.171,-6.46630859375,-1.98193359375,8.22802734375
0.1715,-5.14501953125,-3.86376953125,8.70849609375
0.172,-3.50341796875,-5.30517578125,8.58837890625
0.1725,-1.98193359375,-6.54638671875,8.30810546875
0.173,-0.58056640625,-7.66748046875,7.98779296875
0.1735,0.98095703125,-8.30810546875,7.22705078125
0.174,2.54248046875,-9.06884765625,6.46630859375
0.1745,4.02392578125,-9.50927734375,5.46533203125
0.175,5.10498046875,-9.06884765625,4.02392578125
0.1755,6.34619140625,-8.90869140625,2.66259765625
0.176,7.06689453125,-8.14794921875,1.22119140625
0.1765,7.86767578125,-7.46728515625,-0.54052734375
0.177,8.50830078125,-6.54638671875,-1.94189453125
0.1775,8.70849609375,-5.26513671875,-3.42333984375
0.178,8.42822265625,-3.78369140625,-4.62451171875
0.1785,8.06787109375,-2.18212890625,-5.90576171875
0.179,7.42724609375,-0.62060546875,-6.78662109375
0.1795,6.70654296875,1.14111328125,-7.74755859375
0.18,5.46533203125,2.86279296875,-8.30810546875
0.1805,3.90380859375,4.26416015625,-8.10791015625
0.181,2.54248046875,5.66552734375,-8.14794921875
0.1815,1.22119140625,6.70654296875,-7.86767578125
0.182,-0.34033203125,7.54736328125,-7.26708984375
0.1825,-1.90185546875,8.38818359375,-6.58642578125
0.183,-3.34326171875,8.66845703125,-5.46533203125
0.1835,-4.50439453125,8.42822265625,-4.14404296875
0.184,-5.78564453125,8.26806640625,-2.70263671875
0.1845,-6.54638671875,7.42724609375,-1.42138671875
0.185,-7.54736328125,6.90673828125,0.34033203125
0.1855,-8.26806640625,6.06591796875,1.94189453125
0.186,-8.30810546875,4.82470703125,3.34326171875
0.1865,-8.22802734375,3.26318359375,4.78466796875
0.187,-7.78759765625,1.58154296875,5.98583984375
0.1875,-7.10693359375,0.02001953125,7.02685546875
0.188,-6.26611328125,-1.90185546875,7.90771484375
0.1885,-4.86474609375,-3.66357421875,8.26806640625
0.189,-3.34326171875,-4.98486328125,8.14794921875
0.1895,-1.94189453125,-6.50634765625,8.18798828125
0.19,-0.46044921875,-7.42724609375,7.70751953125
0.1905,1.22119140625,-8.34814453125,7.06689453125
0.191,2.82275390625,-9.10888671875,6.26611328125
0.1915,4.14404296875,-9.02880859375,4.94482421875
0.192,5.42529296875,-8.90869140625,3.54345703125
0.1925,6.42626953125,-8.58837890625,1.98193359375
0.193,7.30712890625,-7.70751953125,0.50048828125
0.1935,8.18798828125,-6.98681640625,-1.18115234375
0.194,8.74853515625,-5.82568359375,-2.86279296875
0.1945,8.50830078125,-4.30419921875,-4.18408203125
0.195,8.30810546875,-2.70263671875,-5.62548828125
0.1955,7.62744140625,-1.10107421875,-6.58642578125
0.196,6.90673828125,0.70068359375,-7.54736328125
0.1965,5.82568359375,2.58251953125,-8.30810546875
0.197,4.18408203125,4.22412109375,-8.34814453125
0.1975,2.70263671875,5.58544921875,-8.18798828125
0.198,1.26123046875,6.86669921875,-8.02783203125
0.1985,-0.34033203125,7.62744140625,-7.34716796875
0.199,-1.94189453125,8.46826171875,-6.62646484375
