wavelength,x,y,z
0.0,18.793334960938,-1.9869384765625,-16.080688476562
0.0005,17.151733398438,1.9368896484375,-18.362915039062
0.001,15.630249023438,5.0599365234375,-19.924438476562
0.0015,13.107788085938,7.9827880859375,-20.404907226562
0.002,9.2640380859375,11.225952148438,-19.884399414062
0.0025,4.6595458984375,14.789428710938,-19.043579101562
0.003,-0.2252197265625,17.792358398438,-17.401977539062
0.0035,-4.1490478515625,19.714233398438,-15.640258789062
0.004,-6.7115478515625,20.274780273438,-13.798461914062
0.0045,-9.6744384765625,20.354858398438,-11.195922851562
0.005,-13.197875976562,19.634155273438,-7.1119384765625
0.0055,-16.320922851562,18.432983398438,-2.9879150390625
0.006,-18.763305664062,16.711303710938,1.1761474609375
0.0065,-20.484985351562,14.989624023438,4.5394287109375
0.007,-20.605102539062,12.347045898438,7.3421630859375
0.0075,-20.364868164062,8.8236083984375,10.585327148438
0.008,-19.604125976562,4.4993896484375,14.268920898438
0.0085,-18.483032226562,0.2152099609375,17.351928710938
0.009,-16.721313476562,-3.5484619140625,19.473999023438
0.0095,-14.919555664062,-6.3511962890625,20.434936523438
0.01,-12.196899414062,-9.2740478515625,20.755249023438
0.0105,-7.6324462890625,-12.957641601562,19.914428710938
0.011,-2.9879150390625,-16.080688476562,18.593139648438
0.0115,1.6966552734375,-18.643188476562,16.791381835938
0.012,5.3001708984375,-20.404907226562,15.149780273438
0.0125,7.9027099609375,-20.484985351562,12.867553710938
0.013,10.785522460938,-20.364868164062,10.104858398438
0.0135,14.549194335938,-19.484008789062,5.6204833984375
0.014,17.432006835938,-17.962524414062,1.2962646484375
0.0145,19.514038085938,-16.240844726562,-2.5474853515625
0.015,20.635131835938,-14.359008789062,-5.4302978515625
0.0155,20.555053710938,-11.436157226562,-8.3531494140625
0.016,19.994506835938,-7.2720947265625,-11.996704101562
0.0165,19.113647460938,-3.2681884765625,-15.079711914062
0.017,17.752319335938,0.8958740234375,-17.842407226562
0.0175,16.030639648438,4.4593505859375,-19.724243164062
0.018,13.708374023438,7.0218505859375,-20.004516601562
0.0185,10.905639648438,9.8646240234375,-20.164672851562
0.019,5.9007568359375,13.788452148438,-19.203735351562
0.0195,1.3363037109375,16.671264648438,-17.682250976562
0.02,-2.7076416015625,18.633178710938,-15.920532226562
0.0205,-5.7906494140625,20.034545898438,-14.399047851562
0.021,-8.4332275390625,19.914428710938,-11.876586914062
0.0215,-11.476196289062,19.473999023438,-8.6334228515625
0.022,-14.759399414062,18.633178710938,-4.6295166015625
0.0225,-17.562133789062,16.991577148438,-0.3453369140625
0.023,-19.363891601562,15.309936523438,3.1781005859375
0.0235,-19.924438476562,13.187866210938,5.7406005859375
0.024,-19.924438476562,10.385131835938,8.6634521484375
0.0245,-19.243774414062,5.8607177734375,12.507202148438
0.025,-18.282836914062,2.0570068359375,15.430053710938
0.0255,-16.961547851562,-1.6265869140625,17.672241210938
0.026,-15.480102539062,-4.8297119140625,19.514038085938
0.0265,-12.917602539062,-7.4322509765625,19.514038085938
0.027,-9.7945556640625,-10.315063476562,19.433959960938
0.0275,-5.0699462890625,-14.038696289062,18.553100585938
0.028,-0.2652587890625,-16.921508789062,16.831420898438
0.0285,3.3382568359375,-18.643188476562,15.229858398438
0.029,6.0208740234375,-19.604125976562,13.788452148438
0.0295,8.7835693359375,-19.644165039062,11.225952148438
0.03,12.226928710938,-18.963500976562,7.3421630859375
0.0305,15.149780273438,-18.162719726562,3.6585693359375
0.031,17.752319335938,-16.601196289062,-0.5054931640625
0.0315,19.473999023438,-14.999633789062,-3.7886962890625
0.032,19.554077148438,-12.437133789062,-6.3511962890625
0.0325,19.554077148438,-9.4742431640625,-9.3541259765625
0.033,18.913452148438,-4.9097900390625,-13.277954101562
0.0335,17.792358398438,-0.9859619140625,-16.160766601562
0.034,16.350952148438,2.4573974609375,-18.082641601562
0.0345,14.829467773438,5.4202880859375,-19.564086914062
0.035,11.946655273438,8.2630615234375,-19.564086914062
0.0355,7.7825927734375,11.786499023438,-19.083618164062
0.036,3.5784912109375,15.029663085938,-18.202758789062
0.0365,-1.2662353515625,17.752319335938,-16.401000976562
0.037,-4.5894775390625,19.353881835938,-14.839477539062
0.0375,-7.1519775390625,19.714233398438,-12.837524414062
0.038,-9.9547119140625,19.794311523438,-10.395141601562
0.0385,-13.918579101562,18.873413085938,-5.7105712890625
0.039,-16.641235351562,17.592163085938,-1.8267822265625
0.0395,-18.763305664062,15.990600585938,1.8968505859375
0.04,-20.204711914062,14.308959960938,5.0198974609375
0.0405,-20.004516601562,11.306030273438,7.8226318359375
0.041,-19.804321289062,7.6224365234375,11.386108398438
0.0415,-19.083618164062,3.3382568359375,14.869506835938
0.042,-17.682250976562,-0.9058837890625,17.792358398438
0.0425,-16.000610351562,-4.1890869140625,19.393920898438
0.043,-14.078735351562,-6.9117431640625,20.274780273438
0.0435,-11.195922851562,-9.7945556640625,20.314819335938
0.044,-5.9107666015625,-13.878540039062,19.233764648438
0.0445,-1.5865478515625,-16.681274414062,17.912475585938
0.045,2.7777099609375,-19.003540039062,16.150756835938
0.0455,6.0208740234375,-20.404907226562,14.589233398438
0.046,8.7435302734375,-20.204711914062,11.826538085938
0.0465,11.666381835938,-20.164672851562,8.9837646484375
0.047,15.510131835938,-19.083618164062,4.3392333984375
0.0475,18.312866210938,-17.361938476562,-0.2652587890625
0.048,19.914428710938,-15.640258789062,-3.4683837890625
0.0485,20.795288085938,-13.558227539062,-6.3912353515625
0.049,20.394897460938,-10.315063476562,-9.2340087890625
0.0495,19.794311523438,-5.7906494140625,-13.197875976562
0.05,18.833374023438,-1.9468994140625,-16.160766601562
0.0505,17.311889648438,2.1771240234375,-18.723266601562
0.051,15.430053710938,5.4603271484375,-20.204711914062
0.0515,12.747436523438,8.1829833984375,-20.244750976562
0.052,9.7445068359375,11.145874023438,-20.284790039062
0.0525,4.1390380859375,15.229858398438,-19.003540039062
0.053,-0.5455322265625,17.912475585938,-17.161743164062
0.0535,-4.0689697265625,19.594116210938,-15.560180664062
0.054,-7.1119384765625,20.635131835938,-13.838500976562
0.0545,-9.9547119140625,20.114624023438,-10.755493164062
0.055,-13.157836914062,19.554077148438,-7.0718994140625
0.0555,-16.441040039062,18.513061523438,-3.0279541015625
0.056,-19.043579101562,16.631225585938,1.5364990234375
0.0565,-20.284790039062,14.869506835938,4.4993896484375
0.057,-20.605102539062,12.347045898438,7.3421630859375
0.0575,-20.324829101562,9.2640380859375,10.184936523438
0.058,-19.484008789062,4.2191162109375,14.389038085938
0.0585,-18.202758789062,0.3353271484375,17.031616210938
0.059,-16.761352539062,-3.2281494140625,19.153686523438
0.0595,-15.039672851562,-6.3511962890625,20.555053710938
0.06,-11.756469726562,-9.1138916015625,20.154663085938
0.0605,-8.2330322265625,-12.357055664062,19.914428710938
0.061,-3.1080322265625,-16.000610351562,18.633178710938
0.0615,1.8568115234375,-18.563110351562,16.591186523438
0.062,4.8597412109375,-19.884399414062,15.029663085938
0.0625,7.7425537109375,-20.605102539062,13.107788085938
0.063,10.545288085938,-20.244750976562,10.104858398438
0.0635,14.348999023438,-19.283813476562,5.5404052734375
0.064,17.231811523438,-18.002563476562,1.6165771484375
0.0645,19.514038085938,-16.240844726562,-2.4273681640625
0.065,20.474975585938,-14.359008789062,-5.3101806640625
0.0655,20.354858398438,-11.356079101562,-8.2330322265625
0.066,20.114624023438,-7.9927978515625,-11.396118164062
0.0665,19.233764648438,-3.2681884765625,-15.239868164062
0.067,17.672241210938,0.9359130859375,-17.882446289062
0.0675,16.110717773438,4.1390380859375,-19.484008789062
0.068,14.188842773438,7.1019287109375,-20.645141601562
0.0685,10.705444335938,10.104858398438,-20.164672851562
0.069,6.0208740234375,13.908569335938,-19.403930664062
0.0695,1.4564208984375,17.031616210938,-18.202758789062
0.07,-3.2681884765625,19.473999023438,-16.160766601562
0.0705,-6.1109619140625,20.354858398438,-14.479125976562
0.071,-9.0338134765625,20.555053710938,-11.996704101562
0.0715,-11.956665039062,20.194702148438,-8.9537353515625
0.072,-15.760375976562,19.033569335938,-4.1090087890625
0.0725,-18.523071289062,17.351928710938,0.2952880859375
0.073,-20.324829101562,15.630249023438,3.7786865234375
0.0735,-21.045532226562,13.428100585938,6.6214599609375
0.074,-20.565063476562,9.9447021484375,9.7044677734375
0.0745,-20.084594726562,5.9007568359375,13.267944335938
0.075,-19.123657226562,1.5765380859375,16.671264648438
0.0755,-17.401977539062,-2.7076416015625,19.233764648438
0.076,-15.520141601562,-5.7105712890625,20.434936523438
0.0765,-13.197875976562,-8.6734619140625,21.075561523438
0.077,-9.5543212890625,-11.716430664062,20.595092773438
0.0775,-4.1490478515625,-15.640258789062,19.273803710938
0.078,0.5755615234375,-18.442993164062,17.632202148438
0.0785,4.6195068359375,-20.484985351562,15.830444335938
0.079,7.3822021484375,-21.125610351562,13.908569335938
0.0795,10.545288085938,-20.885375976562,10.745483398438
0.08,13.668334960938,-20.244750976562,7.2220458984375
0.0805,17.111694335938,-18.923461914062,2.6175537109375
0.081,19.714233398438,-16.921508789062,-1.9468994140625
0.0815,20.995483398438,-15.119750976562,-4.9898681640625
0.082,21.395874023438,-12.557250976562,-7.9927978515625
0.0825,20.795288085938,-8.9136962890625,-11.035766601562
0.083,19.874389648438,-4.3092041015625,-14.799438476562
0.0835,18.673217773438,-0.2252197265625,-17.722290039062
0.084,16.991577148438,3.8187255859375,-20.004516601562
0.0845,14.789428710938,6.7015380859375,-20.805297851562
0.085,11.826538085938,9.7445068359375,-20.925415039062
0.0855,7.8226318359375,13.147827148438,-20.444946289062
0.086,2.5374755859375,16.751342773438,-18.923461914062
0.0865,-2.2672119140625,19.193725585938,-16.921508789062
0.087,-5.6304931640625,20.715209960938,-15.279907226562
0.0875,-8.4332275390625,21.115600585938,-13.117797851562
0.088,-11.516235351562,20.595092773438,-9.7144775390625
0.0885,-14.959594726562,19.754272460938,-5.6304931640625
0.089,-18.002563476562,18.312866210938,-1.2261962890625
0.0895,-20.324829101562,16.310913085938,3.0980224609375
0.09,-21.085571289062,14.308959960938,5.8206787109375
0.0905,-21.205688476562,11.386108398438,8.9437255859375
0.091,-20.645141601562,7.4622802734375,12.307006835938
0.0915,-19.604125976562,2.8177490234375,15.950561523438
0.092,-18.082641601562,-1.3463134765625,18.553100585938
0.0925,-16.521118164062,-4.9097900390625,20.595092773438
0.093,-14.198852539062,-7.7125244140625,21.155639648438
0.0935,-10.795532226562,-10.755493164062,20.835327148438
0.094,-6.3111572265625,-14.399047851562,20.194702148438
0.0945,-1.1861572265625,-17.762329101562,18.553100585938
0.095,3.4583740234375,-19.924438476562,16.350952148438
0.0955,6.3812255859375,-21.005493164062,14.749389648438
0.096,9.3441162109375,-21.245727539062,12.307006835938
0.0965,12.507202148438,-20.525024414062,8.6234130859375
0.097,15.990600585938,-19.484008789062,4.2191162109375
0.0975,18.833374023438,-17.802368164062,-0.2252197265625
0.098,20.875366210938,-15.880493164062,-4.1490478515625
0.0985,21.195678710938,-13.558227539062,-6.7916259765625
0.099,21.115600585938,-10.234985351562,-9.9947509765625
0.0995,20.434936523438,-5.9508056640625,-13.678344726562
0.1,19.353881835938,-1.6265869140625,-17.001586914062
0.1005,17.512084960938,2.5374755859375,-19.283813476562
0.101,15.870483398438,5.7806396484375,-20.885375976562
0.1015,13.227905273438,8.7034912109375,-21.245727539062
0.102,9.2640380859375,11.986694335938,-20.645141601562
0.1025,4.4993896484375,15.550170898438,-19.644165039062
0.103,-0.5855712890625,18.633178710938,-17.922485351562
0.1035,-4.7896728515625,20.555053710938,-15.920532226562
0.104,-7.5123291015625,21.115600585938,-13.958618164062
0.1045,-10.595336914062,21.195678710938,-11.195922851562
0.105,-14.078735351562,20.354858398438,-7.0718994140625
0.1055,-17.241821289062,19.073608398438,-2.7076416015625
0.106,-19.804321289062,17.191772460938,1.6566162109375
0.1065,-21.485961914062,15.309936523438,5.2601318359375
0.107,-21.606079101562,12.507202148438,8.0628662109375
0.1075,-21.285766601562,8.9036865234375,11.466186523438
0.108,-20.404907226562,4.2991943359375,15.229858398438
0.1085,-19.203735351562,-0.1451416015625,18.432983398438
0.109,-17.281860351562,-4.1490478515625,20.474975585938
0.1095,-15.279907226562,-7.0718994140625,21.556030273438
0.11,-12.357055664062,-10.154907226562,21.796264648438
0.1105,-7.7525634765625,-13.838500976562,20.955444335938
0.111,-2.8677978515625,-17.161743164062,19.514038085938
0.1115,2.1771240234375,-19.884399414062,17.512084960938
0.112,6.0609130859375,-21.526000976562,15.630249023438
0.1125,8.7835693359375,-21.646118164062,13.187866210938
0.113,11.866577148438,-21.485961914062,10.224975585938
0.1135,15.710327148438,-20.484985351562,5.5003662109375
0.114,18.793334960938,-18.843383789062,0.9759521484375
0.1145,20.995483398438,-16.841430664062,-3.2681884765625
0.115,22.156616210938,-14.759399414062,-6.4713134765625
0.1155,22.036499023438,-11.596313476562,-9.5543212890625
0.116,21.475952148438,-7.3922119140625,-13.317993164062
0.1165,20.354858398438,-2.9879150390625,-16.601196289062
0.117,18.873413085938,1.5765380859375,-19.564086914062
0.1175,16.791381835938,5.4202880859375,-21.485961914062
0.118,14.228881835938,8.3031005859375,-21.846313476562
0.1185,11.185913085938,11.386108398438,-22.006469726562
0.119,5.6204833984375,15.630249023438,-20.805297851562
0.1195,0.7757568359375,18.553100585938,-19.163696289062
0.12,-3.7486572265625,20.795288085938,-17.041625976562
0.1205,-7.3121337890625,22.236694335938,-15.239868164062
0.121,-10.234985351562,21.876342773438,-12.196899414062
0.1215,-13.438110351562,21.435913085938,-8.7935791015625
0.122,-17.161743164062,20.354858398438,-4.0689697265625
0.1225,-20.124633789062,18.312866210938,0.8157958984375
0.123,-21.926391601562,16.270874023438,4.6595458984375
0.1235,-22.567016601562,13.828491210938,7.7025146484375
0.124,-22.406860351562,10.465209960938,10.905639648438
0.1245,-21.566040039062,5.4603271484375,15.189819335938
0.125,-20.324829101562,1.2562255859375,18.192749023438
0.1255,-18.563110351562,-3.0679931640625,20.755249023438
0.126,-16.601196289062,-6.7916259765625,22.557006835938
0.1265,-13.478149414062,-9.7144775390625,22.356811523438
0.127,-10.074829101562,-12.917602539062,22.236694335938
0.1275,-4.3492431640625,-17.121704101562,20.795288085938
0.128,1.0960693359375,-20.004516601562,18.713256835938
0.1285,5.0999755859375,-21.726196289062,16.631225585938
0.129,8.4232177734375,-22.767211914062,14.669311523438
0.1295,11.546264648438,-22.366821289062,11.346069335938
0.13,15.109741210938,-21.485961914062,7.0618896484375
0.1305,18.432983398438,-20.204711914062,2.6575927734375
0.131,21.275756835938,-18.082641601562,-2.2672119140625
0.1315,22.757202148438,-15.920532226562,-5.9107666015625
0.132,22.757202148438,-12.957641601562,-8.9136962890625
0.1325,22.557006835938,-9.5543212890625,-12.196899414062
0.133,21.515991210938,-4.1490478515625,-16.521118164062
0.1335,19.914428710938,0.2952880859375,-19.403930664062
0.134,18.032592773438,4.2191162109375,-21.445922851562
0.1345,15.990600585938,7.7425537109375,-23.007446289062
0.135,12.226928710938,10.865600585938,-22.446899414062
0.1355,7.9427490234375,14.469116210938,-21.926391601562
0.136,2.7376708984375,18.232788085938,-20.565063476562
0.1365,-2.8677978515625,21.115600585938,-18.242797851562
0.137,-6.5113525390625,22.436889648438,-16.120727539062
0.1375,-9.6343994140625,22.877319335938,-13.718383789062
0.138,-12.757446289062,22.557006835938,-10.515258789062
0.1385,-16.881469726562,21.195678710938,-5.2301025390625
0.139,-19.804321289062,19.594116210938,-0.7857666015625
0.1395,-22.126586914062,17.472045898438,3.6585693359375
0.14,-23.367797851562,15.229858398438,7.0618896484375
0.1405,-22.927368164062,11.666381835938,10.265014648438
0.141,-22.607055664062,7.7825927734375,13.828491210938
0.1415,-21.485961914062,2.6575927734375,17.872436523438
0.142,-19.564086914062,-2.1871337890625,20.795288085938
0.1425,-17.442016601562,-5.8306884765625,22.356811523438
0.143,-15.199829101562,-9.0738525390625,23.437866210938
0.1435,-11.356079101562,-12.317016601562,22.877319335938
0.144,-5.8707275390625,-16.401000976562,21.716186523438
0.1445,-0.9859619140625,-19.484008789062,20.034545898438
0.145,4.2591552734375,-21.966430664062,17.672241210938
0.1455,7.7025146484375,-23.007446289062,15.550170898438
0.146,10.865600585938,-22.847290039062,12.427124023438
0.1465,13.868530273438,-22.486938476562,9.3040771484375
0.147,18.072631835938,-20.965454101562,3.7786865234375
0.1475,20.955444335938,-18.923461914062,-1.2261962890625
0.148,22.717163085938,-16.801391601562,-4.9498291015625
0.1485,23.557983398438,-14.399047851562,-8.2730712890625
0.149,22.877319335938,-10.515258789062,-11.476196289062
0.1495,22.236694335938,-6.0308837890625,-15.400024414062
0.15,20.995483398438,-1.4263916015625,-18.723266601562
0.1505,19.033569335938,3.2581787109375,-21.485961914062
0.151,16.671264648438,6.8216552734375,-22.727172851562
0.1515,13.788452148438,9.9847412109375,-23.087524414062
0.152,10.104858398438,13.307983398438,-22.727172851562
0.1525,3.8988037109375,17.632202148438,-21.125610351562
0.153,-1.1461181640625,20.474975585938,-19.163696289062
0.1535,-5.4302978515625,22.396850585938,-17.121704101562
0.154,-8.7535400390625,23.237670898438,-14.879516601562
0.1545,-12.116821289062,22.637084960938,-11.155883789062
0.155,-15.319946289062,22.036499023438,-7.5523681640625
0.1555,-19.043579101562,20.474975585938,-2.4674072265625
0.156,-21.806274414062,18.112670898438,2.6976318359375
0.1565,-23.047485351562,15.990600585938,5.9808349609375
0.157,-23.567993164062,13.187866210938,9.3040771484375
0.1575,-22.887329101562,9.3040771484375,12.547241210938
0.158,-21.806274414062,4.0189208984375,16.871459960938
0.1585,-20.364868164062,-0.5054931640625,19.834350585938
0.159,-18.523071289062,-4.7095947265625,22.276733398438
0.1595,-16.080688476562,-8.1129150390625,23.317749023438
0.16,-12.557250976562,-11.235961914062,23.037475585938
0.1605,-8.6334228515625,-14.679321289062,22.597045898438
0.161,-2.5474853515625,-18.723266601562,20.795288085938
0.1615,2.8978271484375,-21.325805664062,18.272827148438
0.162,6.4613037109375,-22.767211914062,16.390991210938
0.1625,9.7445068359375,-23.407836914062,14.028686523438
0.163,13.067749023438,-22.567016601562,10.184936523438
0.1635,16.711303710938,-21.526000976562,5.6204833984375
0.164,19.914428710938,-20.004516601562,0.9759521484375
0.1645,22.476928710938,-17.642211914062,-3.8687744140625
0.165,23.237670898438,-15.319946289062,-6.9517822265625
0.1655,23.277709960938,-12.036743164062,-10.275024414062
0.166,22.677124023438,-8.0328369140625,-13.718383789062
0.1665,21.435913085938,-2.8677978515625,-17.802368164062
0.167,19.514038085938,1.7767333984375,-20.484985351562
0.1675,17.712280273438,5.5003662109375,-22.486938476562
0.168,15.189819335938,8.9036865234375,-23.247680664062
0.1685,11.065795898438,12.186889648438,-22.647094726562
0.169,6.4212646484375,15.990600585938,-21.886352539062
0.1695,0.9759521484375,19.514038085938,-20.204711914062
0.17,-4.3492431640625,21.916381835938,-17.642211914062
0.1705,-7.4322509765625,22.797241210938,-15.680297851562
0.171,-10.715454101562,23.117553710938,-12.957641601562
0.1715,-14.038696289062,22.316772460938,-9.0738525390625
0.172,-17.802368164062,20.955444335938,-4.0289306640625
0.1725,-20.725219726562,19.073608398438,0.6556396484375
0.173,-22.887329101562,16.911499023438,4.9798583984375
0.1735,-23.327758789062,14.308959960938,7.9827880859375
0.174,-23.047485351562,10.465209960938,11.546264648438
0.1745,-22.326782226562,6.1009521484375,15.229858398438
0.175,-21.085571289062,1.2161865234375,18.913452148438
0.1755,-18.923461914062,-3.4283447265625,21.435913085938
0.176,-16.921508789062,-6.7515869140625,22.757202148438
0.1765,-14.238891601562,-9.9547119140625,23.397827148438
0.177,-9.9146728515625,-13.317993164062,22.476928710938
0.1775,-4.5894775390625,-17.161743164062,21.195678710938
0.178,0.6556396484375,-20.204711914062,19.273803710938
