wavelength,x,y,z
0.0,0.2452392578125,19.183715820312,-19.253784179688
0.0005,-4.5194091796875,21.065551757812,-16.651245117188
0.001,-7.7225341796875,21.586059570312,-14.248901367188
0.0015,-11.245971679688,21.626098632812,-10.925659179688
0.002,-14.529174804688,21.305786132812,-7.5623779296875
0.0025,-17.852416992188,19.984497070312,-3.1180419921875
0.003,-20.054565429688,17.622192382812,1.4864501953125
0.0035,-21.295776367188,15.339965820312,4.9698486328125
0.004,-21.976440429688,12.537231445312,8.3731689453125
0.0045,-21.816284179688,8.8936767578125,11.976684570312
0.005,-21.175659179688,4.6495361328125,15.620239257812
0.0055,-20.134643554688,0.8458251953125,18.342895507812
0.006,-17.892456054688,-3.3983154296875,20.344848632812
0.0065,-15.329956054688,-6.6014404296875,21.065551757812
0.007,-12.407104492188,-10.044799804688,21.626098632812
0.0075,-8.6434326171875,-13.528198242188,21.465942382812
0.008,-3.4783935546875,-17.051635742188,19.984497070312
0.0085,1.1260986328125,-19.173706054688,17.782348632812
0.009,4.9698486328125,-20.615112304688,15.660278320312
0.0095,8.1729736328125,-21.135620117188,13.177856445312
0.01,11.576293945312,-20.975463867188,9.8546142578125
0.0105,14.979614257812,-20.414916992188,6.1309814453125
0.011,17.822387695312,-19.053588867188,2.0469970703125
0.0115,19.864379882812,-16.651245117188,-2.4373779296875
0.012,20.625122070312,-14.328979492188,-5.4403076171875
0.0125,21.185668945312,-11.406127929688,-8.9637451171875
0.013,21.105590820312,-7.9627685546875,-12.367065429688
0.0135,20.264770507812,-3.7987060546875,-15.730346679688
0.014,18.743286132812,0.0850830078125,-18.012573242188
0.0145,16.701293945312,3.8487548828125,-19.774291992188
0.015,14.098754882812,7.0518798828125,-20.454956054688
0.0155,10.855590820312,10.295043945312,-20.615112304688
0.016,6.8917236328125,13.938598632812,-20.414916992188
0.0165,2.2071533203125,17.021606445312,-18.933471679688
0.017,-2.4774169921875,18.903442382812,-16.451049804688
0.0175,-5.5604248046875,19.904418945312,-14.609252929688
0.018,-8.8436279296875,20.464965820312,-12.046752929688
0.0185,-12.086791992188,20.184692382812,-8.8035888671875
0.019,-15.329956054688,19.423950195312,-4.8797607421875
0.0195,-17.812377929688,17.862426757812,-0.9959716796875
0.02,-19.654174804688,15.540161132812,3.1680908203125
0.0205,-20.214721679688,13.097778320312,6.0909423828125
0.021,-20.575073242188,10.054809570312,9.6143798828125
0.0215,-20.414916992188,6.4112548828125,13.097778320312
0.022,-19.574096679688,2.5274658203125,16.140747070312
0.0225,-17.692260742188,-1.3563232421875,18.102661132812
0.023,-15.770385742188,-4.5994873046875,19.504028320312
0.0235,-13.328002929688,-7.7625732421875,20.264770507812
0.024,-9.8045654296875,-11.045776367188,20.104614257812
0.0245,-5.6405029296875,-14.409057617188,19.463989257812
0.025,-1.1561279296875,-17.171752929688,17.902465820312
0.0255,3.2481689453125,-18.893432617188,15.500122070312
0.026,6.0108642578125,-19.413940429688,13.578247070312
0.0265,9.3341064453125,-19.894409179688,10.895629882812
0.027,12.617309570312,-19.574096679688,7.5323486328125
0.0275,15.580200195312,-18.613159179688,3.7686767578125
0.028,17.702270507812,-16.811401367188,-0.1551513671875
0.0285,19.263793945312,-14.809448242188,-3.6785888671875
0.029,19.704223632812,-12.327026367188,-6.5614013671875
0.0295,19.904418945312,-9.2440185546875,-9.9246826171875
0.03,19.544067382812,-5.5203857421875,-13.328002929688
0.0305,18.703247070312,-1.9168701171875,-16.130737304688
0.031,16.661254882812,2.0469970703125,-17.972534179688
0.0315,14.659301757812,4.9298095703125,-18.933471679688
0.032,12.136840820312,8.1729736328125,-19.734252929688
0.0325,8.4132080078125,11.576293945312,-19.534057617188
0.033,4.2091064453125,14.739379882812,-18.573120117188
0.0335,0.0050048828125,16.981567382812,-16.811401367188
0.034,-3.8787841796875,18.623168945312,-14.849487304688
0.0345,-6.6014404296875,19.023559570312,-12.687377929688
0.035,-9.7244873046875,19.343872070312,-10.124877929688
0.0355,-13.127807617188,18.943481445312,-6.4813232421875
0.036,-15.890502929688,17.782348632812,-2.7576904296875
0.0365,-17.772338867188,15.740356445312,1.1260986328125
0.037,-18.933471679688,13.818481445312,4.2091064453125
0.0375,-19.494018554688,11.175903320312,7.4122314453125
0.038,-19.534057617188,7.8126220703125,10.855590820312
0.0385,-19.013549804688,4.2491455078125,13.938598632812
0.039,-17.932495117188,0.6055908203125,16.461059570312
0.0395,-15.930541992188,-3.1981201171875,18.222778320312
0.04,-13.808471679688,-5.9207763671875,18.823364257812
0.0405,-11.245971679688,-8.9637451171875,19.504028320312
0.041,-7.1619873046875,-12.647338867188,19.183715820312
0.0415,-2.8778076171875,-15.450073242188,17.902465820312
0.042,1.2462158203125,-17.331909179688,15.860473632812
0.0425,4.6094970703125,-18.733276367188,14.098754882812
0.043,7.5723876953125,-19.093627929688,11.776489257812
0.0435,10.695434570312,-19.213745117188,8.9337158203125
0.044,14.018676757812,-18.733276367188,5.3302001953125
0.0445,16.541137695312,-17.251831054688,1.4464111328125
0.045,18.302856445312,-15.209838867188,-2.3572998046875
0.0455,19.063598632812,-13.127807617188,-5.1600341796875
0.046,19.584106445312,-10.405151367188,-8.4432373046875
0.0465,19.504028320312,-6.6414794921875,-12.126831054688
0.047,18.743286132812,-3.2781982421875,-14.889526367188
0.0475,17.221801757812,0.4053955078125,-16.971557617188
0.048,15.339965820312,3.9688720703125,-18.653198242188
0.0485,12.737426757812,6.9718017578125,-19.093627929688
0.049,9.9346923828125,10.094848632812,-19.453979492188
0.0495,5.6104736328125,13.778442382812,-18.933471679688
0.05,1.1661376953125,16.461059570312,-17.371948242188
0.0505,-2.7977294921875,18.022583007812,-15.249877929688
0.051,-5.7606201171875,19.063598632812,-13.488159179688
0.0515,-8.9637451171875,19.343872070312,-10.885620117188
0.052,-12.246948242188,19.063598632812,-7.4822998046875
0.0525,-15.089721679688,18.382934570312,-4.1190185546875
0.053,-17.371948242188,16.581176757812,0.0050048828125
0.0535,-19.013549804688,14.419067382812,3.6485595703125
0.054,-19.413940429688,11.896606445312,6.5313720703125
0.0545,-19.854370117188,9.1739501953125,9.8145751953125
0.055,-19.494018554688,5.0098876953125,13.578247070312
0.0555,-18.453002929688,1.4063720703125,16.180786132812
0.056,-16.571166992188,-2.1571044921875,17.822387695312
0.0565,-14.729370117188,-5.3201904296875,19.223754882812
0.057,-11.846557617188,-8.3631591796875,19.504028320312
0.0575,-8.4031982421875,-11.686401367188,19.463989257812
0.058,-4.3592529296875,-14.809448242188,18.623168945312
0.0585,0.3253173828125,-17.211791992188,16.621215820312
0.059,3.9688720703125,-18.573120117188,14.619262695312
0.0595,6.7315673828125,-19.173706054688,12.537231445312
0.06,9.8546142578125,-19.534057617188,10.094848632812
0.0605,13.498168945312,-18.893432617188,5.9708251953125
0.061,15.980590820312,-17.812377929688,2.5274658203125
0.0615,17.862426757812,-15.930541992188,-1.2362060546875
0.062,19.223754882812,-13.848510742188,-4.5594482421875
0.0625,19.343872070312,-11.045776367188,-7.5623779296875
0.063,19.624145507812,-8.0428466796875,-10.885620117188
0.0635,19.103637695312,-4.3592529296875,-14.128784179688
0.064,17.782348632812,-0.5155029296875,-16.651245117188
0.0645,15.700317382812,3.0479736328125,-18.012573242188
0.065,13.698364257812,5.9307861328125,-19.053588867188
0.0655,11.015747070312,9.0538330078125,-19.453979492188
0.066,6.5714111328125,12.777465820312,-18.933471679688
0.0665,2.8878173828125,15.380004882812,-17.972534179688
0.067,-1.5164794921875,17.462036132812,-15.890502929688
0.0675,-4.8797607421875,18.743286132812,-14.088745117188
0.068,-7.7225341796875,18.943481445312,-11.566284179688
0.0685,-10.605346679688,19.223754882812,-9.2440185546875
0.069,-14.168823242188,18.543090820312,-5.1600341796875
0.0695,-16.571166992188,16.941528320312,-1.3162841796875
0.07,-18.092651367188,15.059692382812,2.1671142578125
0.0705,-19.213745117188,12.977661132812,5.2901611328125
0.071,-19.413940429688,10.094848632812,8.4132080078125
0.0715,-19.373901367188,6.3712158203125,12.096801757812
0.072,-18.773315429688,3.0479736328125,14.779418945312
0.0725,-17.251831054688,-0.7957763671875,17.141723632812
0.073,-15.209838867188,-4.1590576171875,18.543090820312
0.0735,-12.847534179688,-6.9217529296875,19.023559570312
0.074,-10.325073242188,-9.9246826171875,19.504028320312
0.0745,-5.4803466796875,-13.808471679688,18.703247070312
0.075,-1.3963623046875,-16.170776367188,17.181762695312
0.0755,2.3673095703125,-17.812377929688,15.299926757812
0.076,5.6104736328125,-19.013549804688,13.498168945312
0.0765,8.6534423828125,-19.013549804688,10.695434570312
0.077,11.776489257812,-19.053588867188,7.6925048828125
0.0775,14.859497070312,-18.372924804688,4.1690673828125
0.078,17.221801757812,-16.491088867188,0.0450439453125
0.0785,18.543090820312,-14.569213867188,-3.1981201171875
0.079,19.263793945312,-12.246948242188,-6.2811279296875
0.0795,19.584106445312,-9.6444091796875,-9.2440185546875
0.08,19.223754882812,-5.3602294921875,-13.207885742188
0.0805,18.302856445312,-2.0369873046875,-15.610229492188
0.081,16.581176757812,1.6466064453125,-17.532104492188
0.0815,14.579223632812,5.0499267578125,-18.973510742188
0.082,11.576293945312,8.0928955078125,-19.093627929688
0.0825,8.7735595703125,11.255981445312,-19.494018554688
0.083,4.1290283203125,14.859497070312,-18.613159179688
0.0835,-0.4754638671875,17.141723632812,-16.531127929688
0.084,-3.7987060546875,18.422973632812,-14.769409179688
0.0845,-6.9617919921875,19.343872070312,-12.807495117188
0.085,-9.9647216796875,19.383911132812,-9.9647216796875
0.0855,-13.488159179688,18.863403320312,-6.0809326171875
0.086,-16.090698242188,17.902465820312,-2.7176513671875
0.0865,-18.132690429688,15.860473632812,1.4464111328125
0.087,-19.253784179688,13.698364257812,4.6094970703125
0.0875,-19.574096679688,10.815551757812,7.8126220703125
0.088,-19.934448242188,8.0128173828125,10.935668945312
0.0885,-19.373901367188,3.8087158203125,14.699340820312
0.089,-17.932495117188,0.1251220703125,16.941528320312
0.0895,-15.970581054688,-3.2781982421875,18.422973632812
0.09,-14.088745117188,-6.4813232421875,19.704223632812
0.0905,-10.765502929688,-9.6444091796875,19.584106445312
0.091,-6.9217529296875,-13.127807617188,19.423950195312
0.0915,-2.7176513671875,-16.130737304688,18.422973632812
0.092,2.0469970703125,-18.252807617188,16.020629882812
0.0925,5.1300048828125,-19.213745117188,14.138793945312
0.093,8.3331298828125,-19.774291992188,11.696411132812
0.0935,11.376098632812,-19.894409179688,9.0538330078125
0.094,15.019653320312,-18.973510742188,4.6094970703125
0.0945,17.381958007812,-17.492065429688,0.8858642578125
0.095,19.063598632812,-15.490112304688,-2.8377685546875
0.0955,19.984497070312,-13.328002929688,-5.9207763671875
0.096,20.024536132812,-10.044799804688,-9.3240966796875
0.0965,20.024536132812,-6.6414794921875,-12.647338867188
0.097,19.383911132812,-2.9178466796875,-15.770385742188
0.0975,17.502075195312,1.2862548828125,-17.972534179688
0.098,15.299926757812,4.4493408203125,-19.053588867188
0.0985,13.017700195312,7.6925048828125,-20.094604492188
0.099,9.7344970703125,10.895629882812,-20.094604492188
0.0995,4.9298095703125,14.739379882812,-19.213745117188
0.1,0.9259033203125,17.221801757812,-17.892456054688
0.1005,-3.5184326171875,19.063598632812,-15.610229492188
0.101,-6.5213623046875,19.824340820312,-13.608276367188
0.1015,-9.9647216796875,19.904418945312,-10.525268554688
0.102,-12.927612304688,19.864379882812,-7.7225341796875
0.1025,-16.290893554688,18.863403320312,-3.4783935546875
0.103,-18.493041992188,16.701293945312,0.8458251953125
0.1035,-19.734252929688,14.659301757812,4.1290283203125
0.104,-20.494995117188,12.176879882812,7.3721923828125
0.1045,-20.494995117188,8.8135986328125,10.775512695312
0.105,-20.014526367188,4.7696533203125,14.379028320312
0.1055,-19.133666992188,1.2462158203125,17.021606445312
0.106,-17.171752929688,-2.8778076171875,19.143676757812
0.1065,-14.809448242188,-5.9608154296875,19.904418945312
0.107,-12.006713867188,-9.2440185546875,20.464965820312
0.1075,-8.6834716796875,-12.527221679688,20.505004882812
0.108,-3.5584716796875,-16.090698242188,19.223754882812
0.1085,0.9659423828125,-18.292846679688,17.141723632812
0.109,4.6495361328125,-19.814331054688,15.099731445312
0.1095,7.8126220703125,-20.454956054688,12.857543945312
0.11,11.255981445312,-20.334838867188,9.5343017578125
0.1105,14.539184570312,-19.894409179688,5.9708251953125
0.111,17.421997070312,-18.653198242188,1.9669189453125
0.1115,19.544067382812,-16.370971679688,-2.4373779296875
0.112,20.344848632812,-14.128784179688,-5.5203857421875
0.1125,20.945434570312,-11.245971679688,-8.9237060546875
0.113,20.865356445312,-7.8426513671875,-12.286987304688
0.1135,20.104614257812,-3.5584716796875,-15.770385742188
0.114,18.583129882812,0.2852783203125,-18.052612304688
0.1145,16.501098632812,4.1290283203125,-19.894409179688
0.115,13.978637695312,7.3321533203125,-20.575073242188
0.1155,10.575317382812,10.735473632812,-20.695190429688
0.116,6.7315673828125,14.258911132812,-20.494995117188
0.1165,1.9669189453125,17.421997070312,-19.093627929688
0.117,-2.8778076171875,19.343872070312,-16.531127929688
0.1175,-6.1209716796875,20.384887695312,-14.569213867188
0.118,-9.3240966796875,20.865356445312,-12.046752929688
0.1185,-12.767456054688,20.585083007812,-8.5233154296875
0.119,-16.050659179688,19.704223632812,-4.5194091796875
0.1195,-18.573120117188,18.022583007812,-0.4754638671875
0.12,-20.494995117188,15.620239257812,3.8487548828125
0.1205,-20.935424804688,13.097778320312,6.8516845703125
0.121,-21.215698242188,9.8145751953125,10.415161132812
0.1215,-21.015502929688,6.0909423828125,13.978637695312
0.122,-20.054565429688,2.0469970703125,17.141723632812
0.1225,-17.972534179688,-2.0369873046875,19.103637695312
0.123,-15.890502929688,-5.4803466796875,20.464965820312
0.1235,-13.287963867188,-8.6434326171875,21.105590820312
0.124,-9.5643310546875,-12.046752929688,20.825317382812
0.1245,-5.2801513671875,-15.490112304688,20.144653320312
0.125,-0.5555419921875,-18.292846679688,18.422973632812
0.1255,4.0089111328125,-19.974487304688,15.900512695312
0.126,6.9317626953125,-20.494995117188,13.738403320312
0.1265,10.295043945312,-20.855346679688,10.935668945312
0.127,13.738403320312,-20.494995117188,7.2921142578125
0.1275,16.821411132812,-19.373901367188,3.2882080078125
0.128,18.983520507812,-17.371948242188,-0.9158935546875
0.1285,20.545043945312,-15.089721679688,-4.6395263671875
0.129,20.905395507812,-12.407104492188,-7.7225341796875
0.1295,21.065551757812,-9.0037841796875,-11.245971679688
0.13,20.545043945312,-5.1199951171875,-14.689331054688
0.1305,19.584106445312,-1.2762451171875,-17.572143554688
0.131,17.221801757812,2.8878173828125,-19.373901367188
0.1315,14.979614257812,6.0108642578125,-20.374877929688
0.132,12.256958007812,9.4141845703125,-21.015502929688
0.1325,8.2530517578125,13.017700195312,-20.655151367188
0.133,3.8087158203125,16.220825195312,-19.614135742188
0.1335,-0.8358154296875,18.623168945312,-17.652221679688
0.134,-5.0399169921875,20.264770507812,-15.410034179688
0.1345,-7.9627685546875,20.545043945312,-13.007690429688
0.135,-11.286010742188,20.745239257812,-10.124877929688
0.1355,-14.889526367188,20.144653320312,-6.1209716796875
0.136,-17.652221679688,18.823364257812,-2.0770263671875
0.1365,-19.614135742188,16.541137695312,2.1671142578125
0.137,-20.815307617188,14.338989257812,5.6104736328125
0.1375,-21.295776367188,11.336059570312,8.9737548828125
0.138,-21.255737304688,7.5723876953125,12.737426757812
0.1385,-20.494995117188,3.6485595703125,15.980590820312
0.139,-19.173706054688,-0.4754638671875,18.623168945312
0.1395,-16.731323242188,-4.5194091796875,20.424926757812
0.14,-14.369018554688,-7.4422607421875,20.985473632812
0.1405,-11.366088867188,-10.845581054688,21.465942382812
0.141,-6.6815185546875,-14.769409179688,20.865356445312
0.1415,-2.1170654296875,-17.652221679688,19.383911132812
0.142,2.4473876953125,-19.614135742188,17.061645507812
0.1425,6.2510986328125,-21.135620117188,14.979614257812
0.143,9.4542236328125,-21.215698242188,12.176879882812
0.1435,12.817504882812,-21.295776367188,8.8936767578125
0.144,16.501098632812,-20.414916992188,4.7296142578125
0.1445,19.143676757812,-18.573120117188,0.3253173828125
0.145,20.945434570312,-16.170776367188,-3.8387451171875
0.1455,21.706176757812,-13.768432617188,-7.0819091796875
0.146,21.986450195312,-10.565307617188,-10.645385742188
0.1465,21.706176757812,-6.2410888671875,-14.689331054688
0.147,20.705200195312,-2.4373779296875,-17.532104492188
0.1475,18.743286132812,1.7667236328125,-19.854370117188
0.148,16.340942382812,5.8106689453125,-21.495971679688
0.1485,13.177856445312,9.0137939453125,-21.656127929688
0.149,10.054809570312,12.497192382812,-21.976440429688
0.1495,4.9298095703125,16.581176757812,-21.055541992188
0.15,0.0850830078125,19.223754882812,-19.173706054688
0.1505,-4.3192138671875,20.825317382812,-16.611206054688
0.151,-7.7625732421875,21.786254882812,-14.449096679688
0.1515,-11.286010742188,21.786254882812,-11.085815429688
0.152,-14.849487304688,21.265747070312,-7.4022216796875
0.1525,-17.932495117188,20.304809570312,-3.3582763671875
0.153,-20.374877929688,18.062622070312,1.4063720703125
0.1535,-21.936401367188,15.460083007812,5.4102783203125
0.154,-22.296752929688,12.497192382812,8.7735595703125
0.1545,-22.577026367188,9.2540283203125,12.296997070312
0.155,-21.896362304688,4.4093017578125,16.501098632812
0.1555,-20.535034179688,0.4454345703125,19.103637695312
0.156,-18.252807617188,-3.5985107421875,20.865356445312
0.1565,-15.970581054688,-7.3221435546875,22.346801757812
0.157,-12.367065429688,-10.645385742188,22.226684570312
0.1575,-8.6434326171875,-14.168823242188,22.106567382812
0.158,-3.7186279296875,-17.772338867188,20.945434570312
0.1585,1.5665283203125,-20.254760742188,18.503051757812
0.159,5.6905517578125,-21.536010742188,15.940551757812
0.1595,8.9737548828125,-22.256713867188,13.458129882812
0.16,12.417114257812,-22.216674804688,10.255004882812
0.1605,16.340942382812,-21.215698242188,5.6104736328125
0.161,19.063598632812,-19.894409179688,1.7667236328125
0.1615,21.145629882812,-17.532104492188,-2.7977294921875
0.162,22.426879882812,-15.009643554688,-6.4813232421875
0.1625,22.466918945312,-11.606323242188,-9.9647216796875
0.163,22.667114257812,-8.2830810546875,-13.568237304688
0.1635,21.786254882812,-3.5985107421875,-17.331909179688
0.164,20.064575195312,0.7657470703125,-19.934448242188
0.1645,17.381958007812,4.6495361328125,-21.335815429688
0.165,15.059692382812,8.2130126953125,-22.577026367188
0.1655,11.376098632812,11.776489257812,-22.536987304688
0.166,6.5714111328125,15.820434570312,-21.896362304688
0.1665,2.1671142578125,18.823364257812,-20.655151367188
0.167,-3.1580810546875,21.105590820312,-17.972534179688
0.1675,-6.9217529296875,22.146606445312,-15.530151367188
0.168,-10.325073242188,22.346801757812,-12.527221679688
0.1685,-13.768432617188,22.426879882812,-9.4842529296875
0.169,-17.852416992188,21.225708007812,-4.3592529296875
0.1695,-20.374877929688,19.263793945312,0.1251220703125
0.17,-22.056518554688,16.781372070312,4.2091064453125
0.1705,-23.097534179688,14.138793945312,7.8927001953125
0.171,-22.937377929688,10.214965820312,11.656372070312
0.1715,-22.897338867188,6.2510986328125,15.540161132812
0.172,-21.856323242188,2.0469970703125,18.823364257812
0.1725,-19.774291992188,-2.6375732421875,21.305786132812
0.173,-16.931518554688,-6.4412841796875,22.426879882812
0.1735,-14.128784179688,-9.8446044921875,23.147583007812
0.174,-10.485229492188,-13.448120117188,23.107543945312
0.1745,-4.7996826171875,-17.612182617188,21.826293945312
0.175,0.0050048828125,-20.174682617188,19.984497070312
0.1755,4.6495361328125,-22.056518554688,17.301879882812
0.176,8.3331298828125,-22.937377929688,14.739379882812
0.1765,12.136840820312,-22.697143554688,11.015747070312
0.177,15.420043945312,-22.456909179688,7.7725830078125
0.1775,19.143676757812,-21.135620117188,2.9278564453125
0.178,21.626098632812,-18.653198242188,-2.0770263671875
