wavelength,x,y,z
0.0,-12.006713867188,20.865356445312,-9.5643310546875
0.0005,-15.249877929688,20.224731445312,-5.7606201171875
0.001,-18.092651367188,18.823364257812,-1.6766357421875
0.0015,-20.094604492188,16.340942382812,2.7276611328125
0.002,-20.855346679688,14.018676757812,5.8507080078125
0.0025,-21.295776367188,11.135864257812,9.1739501953125
0.003,-21.015502929688,7.3321533203125,12.737426757812
0.0035,-20.134643554688,3.1680908203125,15.980590820312
0.004,-18.573120117188,-0.8358154296875,18.463012695312
0.0045,-16.411010742188,-4.7996826171875,20.344848632812
0.005,-13.808471679688,-7.7625732421875,20.785278320312
0.0055,-10.645385742188,-11.045776367188,20.945434570312
0.006,-6.3612060546875,-14.729370117188,20.464965820312
0.0065,-1.5965576171875,-17.732299804688,18.943481445312
0.007,3.0479736328125,-19.614135742188,16.461059570312
0.0075,6.2911376953125,-20.615112304688,14.459106445312
0.008,9.4942626953125,-21.015502929688,11.896606445312
0.0085,12.857543945312,-20.695190429688,8.3331298828125
0.009,16.020629882812,-19.854370117188,4.4893798828125
0.0095,18.623168945312,-18.212768554688,0.3253173828125
0.01,20.464965820312,-15.850463867188,-3.8387451171875
0.0105,20.785278320312,-13.207885742188,-6.7215576171875
0.011,21.025512695312,-10.204956054688,-10.004760742188
0.0115,20.585083007812,-6.0809326171875,-13.808471679688
0.012,19.624145507812,-2.0770263671875,-16.771362304688
0.0125,17.622192382812,1.9669189453125,-18.773315429688
0.013,15.500122070312,5.5704345703125,-20.294799804688
0.0135,12.737426757812,8.6134033203125,-20.695190429688
0.014,9.0538330078125,12.016723632812,-20.494995117188
0.0145,4.8096923828125,15.420043945312,-19.814331054688
0.015,0.0050048828125,18.222778320312,-18.052612304688
0.0155,-4.3192138671875,19.864379882812,-15.690307617188
0.016,-7.2020263671875,20.424926757812,-13.488159179688
0.0165,-10.525268554688,20.745239257812,-10.845581054688
0.017,-13.968627929688,20.144653320312,-6.9217529296875
0.0175,-16.731323242188,19.063598632812,-3.2381591796875
0.018,-18.973510742188,17.141723632812,0.9659423828125
0.0185,-20.494995117188,14.859497070312,4.7296142578125
0.019,-20.735229492188,12.096801757812,7.6925048828125
0.0195,-20.815307617188,8.7735595703125,11.135864257812
0.02,-20.214721679688,4.6094970703125,14.659301757812
0.0205,-19.093627929688,0.6055908203125,17.582153320312
0.021,-16.851440429688,-3.3983154296875,19.343872070312
0.0215,-14.769409179688,-6.4813232421875,20.344848632812
0.022,-11.926635742188,-9.6844482421875,20.825317382812
0.0225,-7.5623779296875,-13.408081054688,20.344848632812
0.023,-3.4783935546875,-16.330932617188,19.263793945312
0.0235,1.3663330078125,-18.773315429688,17.221801757812
0.024,5.3302001953125,-20.334838867188,15.059692382812
0.0245,8.2130126953125,-20.535034179688,12.577270507812
0.025,11.376098632812,-20.855346679688,9.8946533203125
0.0255,15.099731445312,-20.134643554688,5.6104736328125
0.026,17.782348632812,-18.653198242188,1.6866455078125
0.0265,19.704223632812,-16.531127929688,-2.3973388671875
0.027,20.825317382812,-14.248901367188,-5.7606201171875
0.0275,20.945434570312,-11.245971679688,-8.9237060546875
0.028,20.785278320312,-7.4022216796875,-12.647338867188
0.0285,20.024536132812,-3.5985107421875,-15.690307617188
0.029,18.543090820312,0.6856689453125,-18.453002929688
0.0295,16.140747070312,4.6094970703125,-20.054565429688
0.03,13.658325195312,7.6124267578125,-20.494995117188
0.0305,10.775512695312,10.815551757812,-21.015502929688
0.031,5.7305908203125,14.899536132812,-20.214721679688
0.0315,1.5665283203125,17.542114257812,-18.853393554688
0.032,-2.9578857421875,19.504028320312,-16.571166992188
0.0325,-6.6414794921875,20.785278320312,-14.449096679688
0.033,-9.6444091796875,20.745239257812,-11.606323242188
0.0335,-12.887573242188,20.665161132812,-8.5233154296875
0.034,-16.290893554688,19.864379882812,-4.4393310546875
0.0345,-18.933471679688,17.982543945312,0.0450439453125
0.035,-20.494995117188,15.660278320312,3.8487548828125
0.0355,-21.135620117188,13.137817382812,7.0118408203125
0.036,-21.295776367188,10.054809570312,10.214965820312
0.0365,-20.815307617188,5.4903564453125,14.379028320312
0.037,-19.814331054688,1.9268798828125,16.981567382812
0.0375,-17.932495117188,-2.2772216796875,19.223754882812
0.038,-15.690307617188,-6.1209716796875,20.785278320312
0.0385,-12.607299804688,-8.9637451171875,20.785278320312
0.039,-9.6043701171875,-12.206909179688,21.065551757812
0.0395,-4.5194091796875,-16.010620117188,20.024536132812
0.04,0.3253173828125,-18.613159179688,18.022583007812
0.0405,4.2891845703125,-20.134643554688,15.820434570312
0.041,7.6524658203125,-21.095581054688,13.618286132812
0.0415,10.815551757812,-21.055541992188,10.535278320312
0.042,14.338989257812,-20.454956054688,6.6915283203125
0.0425,17.141723632812,-19.494018554688,3.1280517578125
0.043,19.504028320312,-17.371948242188,-1.3963623046875
0.0435,20.785278320312,-15.009643554688,-4.9998779296875
0.044,20.905395507812,-12.246948242188,-8.0428466796875
0.0445,21.145629882812,-9.1239013671875,-11.245971679688
0.045,20.384887695312,-4.3592529296875,-15.209838867188
0.0455,19.023559570312,-0.5955810546875,-17.692260742188
0.046,16.901489257812,3.2481689453125,-19.534057617188
0.0465,14.739379882812,6.7716064453125,-20.775268554688
0.047,11.336059570312,9.8546142578125,-20.575073242188
0.0475,7.5323486328125,13.378051757812,-20.374877929688
0.048,3.2481689453125,16.501098632812,-19.453979492188
0.0485,-1.8367919921875,18.943481445312,-17.131713867188
0.049,-5.4002685546875,20.104614257812,-14.969604492188
0.0495,-8.4031982421875,20.545043945312,-12.647338867188
0.05,-11.486206054688,20.745239257812,-9.9246826171875
0.0505,-15.249877929688,19.784301757812,-5.2801513671875
0.051,-17.652221679688,18.463012695312,-1.7567138671875
0.0515,-19.574096679688,16.380981445312,2.2872314453125
0.052,-20.695190429688,14.058715820312,5.7305908203125
0.0525,-20.655151367188,10.895629882812,8.7735595703125
0.053,-20.695190429688,7.5323486328125,12.176879882812
0.0535,-19.934448242188,3.3682861328125,15.660278320312
0.054,-18.292846679688,-0.8758544921875,18.222778320312
0.0545,-16.050659179688,-4.3592529296875,19.544067382812
0.055,-13.928588867188,-7.5223388671875,20.585083007812
0.0555,-10.765502929688,-10.565307617188,20.625122070312
0.056,-5.9207763671875,-14.489135742188,19.864379882812
0.0565,-1.9969482421875,-17.171752929688,18.663208007812
0.057,2.7276611328125,-19.253784179688,16.380981445312
0.0575,6.1710205078125,-20.374877929688,14.218872070312
0.058,9.2139892578125,-20.374877929688,11.536254882812
0.0585,12.256958007812,-20.535034179688,8.8536376953125
0.059,15.860473632812,-19.534057617188,4.4093017578125
0.0595,18.302856445312,-17.732299804688,0.2452392578125
0.06,19.784301757812,-15.690307617188,-3.2781982421875
0.0605,20.625122070312,-13.328002929688,-6.5614013671875
0.061,20.505004882812,-10.124877929688,-9.6444091796875
0.0615,20.184692382812,-6.0408935546875,-13.448120117188
0.062,19.383911132812,-2.4373779296875,-16.250854492188
0.0625,17.542114257812,1.8868408203125,-18.573120117188
0.063,15.099731445312,5.3702392578125,-19.774291992188
0.0635,12.497192382812,8.3731689453125,-20.214721679688
0.064,9.4542236328125,11.576293945312,-20.494995117188
0.0645,4.2491455078125,15.500122070312,-19.413940429688
0.065,-0.1551513671875,17.902465820312,-17.652221679688
0.0655,-3.9588623046875,19.504028320312,-15.730346679688
0.066,-7.3221435546875,20.464965820312,-13.488159179688
0.0665,-10.565307617188,20.304809570312,-10.285034179688
0.067,-13.728393554688,20.024536132812,-7.0819091796875
0.0675,-16.771362304688,19.063598632812,-3.1981201171875
0.068,-19.093627929688,16.821411132812,1.3663330078125
0.0685,-20.094604492188,14.579223632812,4.5294189453125
0.069,-20.655151367188,11.976684570312,7.7325439453125
0.0695,-20.655151367188,8.8135986328125,10.895629882812
0.07,-19.974487304688,4.2091064453125,14.779418945312
0.0705,-18.733276367188,0.6055908203125,17.301879882812
0.071,-16.851440429688,-3.3582763671875,19.303833007812
0.0715,-14.489135742188,-6.6815185546875,20.384887695312
0.072,-11.245971679688,-9.9246826171875,20.384887695312
0.0725,-7.9627685546875,-13.207885742188,20.464965820312
0.073,-2.9979248046875,-16.731323242188,19.223754882812
0.0735,1.9268798828125,-19.013549804688,16.821411132812
0.074,5.2501220703125,-20.094604492188,14.859497070312
0.0745,8.4932861328125,-20.815307617188,12.617309570312
0.075,11.736450195312,-20.655151367188,9.4141845703125
0.0755,15.179809570312,-19.854370117188,5.3302001953125
0.076,17.782348632812,-18.613159179688,1.6065673828125
0.0765,19.864379882812,-16.370971679688,-2.7576904296875
0.077,20.505004882812,-13.928588867188,-5.8006591796875
0.0775,20.745239257812,-10.845581054688,-9.1239013671875
0.078,20.665161132812,-7.6424560546875,-12.327026367188
0.0785,19.784301757812,-3.1580810546875,-15.890502929688
0.079,17.942504882812,1.0059814453125,-18.212768554688
0.0795,15.980590820312,4.4893798828125,-19.694213867188
0.08,13.578247070312,7.7725830078125,-20.655151367188
0.0805,9.9346923828125,10.935668945312,-20.374877929688
0.081,5.7706298828125,14.579223632812,-19.934448242188
0.0815,1.4063720703125,17.462036132812,-18.733276367188
0.082,-3.4783935546875,19.544067382812,-16.090698242188
0.0825,-6.4412841796875,20.224731445312,-14.048706054688
0.083,-9.6444091796875,20.625122070312,-11.486206054688
0.0835,-12.807495117188,20.464965820312,-8.3231201171875
0.084,-16.170776367188,19.343872070312,-3.9989013671875
0.0845,-18.533081054688,17.622192382812,0.0450439453125
0.085,-20.134643554688,15.420043945312,3.7686767578125
0.0855,-20.655151367188,12.897583007812,6.8516845703125
0.086,-20.655151367188,9.5343017578125,10.134887695312
0.0865,-20.334838867188,5.7706298828125,13.578247070312
0.087,-19.494018554688,1.8868408203125,16.701293945312
0.0875,-17.411987304688,-2.4373779296875,18.903442382812
0.088,-15.169799804688,-5.6405029296875,19.904418945312
0.0885,-12.807495117188,-8.8035888671875,20.745239257812
0.089,-9.0438232421875,-12.126831054688,20.464965820312
0.0895,-4.3592529296875,-15.690307617188,19.463989257812
0.09,0.0850830078125,-18.212768554688,17.862426757812
0.0905,4.4093017578125,-20.014526367188,15.620239257812
0.091,7.3321533203125,-20.494995117188,13.338012695312
0.0915,10.655395507812,-20.615112304688,10.375122070312
0.092,13.898559570312,-20.334838867188,7.0118408203125
0.0925,16.941528320312,-19.133666992188,2.8878173828125
0.093,19.183715820312,-16.971557617188,-1.4764404296875
0.0935,20.344848632812,-14.769409179688,-4.7596435546875
0.094,20.825317382812,-12.126831054688,-7.9227294921875
0.0945,20.625122070312,-8.6033935546875,-11.286010742188
0.095,19.944458007812,-4.4793701171875,-14.729370117188
0.0955,18.903442382812,-0.6756591796875,-17.452026367188
0.096,16.701293945312,3.5284423828125,-19.494018554688
0.0965,14.138793945312,6.5714111328125,-20.134643554688
0.097,11.376098632812,9.8546142578125,-20.655151367188
0.0975,7.3721923828125,13.418090820312,-20.414916992188
0.098,2.6876220703125,16.661254882812,-19.093627929688
0.0985,-1.9569091796875,18.863403320312,-16.931518554688
0.099,-5.5604248046875,20.304809570312,-14.929565429688
0.0995,-8.6033935546875,20.625122070312,-12.487182617188
0.1,-11.886596679688,20.505004882812,-9.2840576171875
0.1005,-15.209838867188,19.864379882812,-5.4803466796875
0.101,-17.972534179688,18.463012695312,-1.3963623046875
0.1015,-19.934448242188,16.060668945312,2.9278564453125
0.102,-20.575073242188,13.658325195312,5.9708251953125
0.1025,-20.975463867188,10.735473632812,9.2540283203125
0.103,-20.655151367188,6.8917236328125,12.817504882812
0.1035,-19.774291992188,2.8477783203125,15.980590820312
0.104,-18.132690429688,-1.1561279296875,18.382934570312
0.1045,-16.010620117188,-5.0399169921875,20.184692382812
0.105,-13.448120117188,-8.0028076171875,20.545043945312
0.1055,-10.244995117188,-11.245971679688,20.665161132812
0.106,-5.9207763671875,-14.849487304688,20.224731445312
0.1065,-1.2362060546875,-17.812377929688,18.623168945312
0.107,3.4083251953125,-19.614135742188,16.140747070312
0.1075,6.5714111328125,-20.535034179688,14.138793945312
0.108,9.7745361328125,-20.895385742188,11.496215820312
0.1085,13.097778320312,-20.494995117188,7.9727783203125
0.109,16.260864257812,-19.614135742188,4.1290283203125
0.1095,18.743286132812,-17.852416992188,-0.1551513671875
0.11,20.464965820312,-15.530151367188,-4.1590576171875
0.1105,20.745239257812,-12.847534179688,-7.0819091796875
0.111,20.985473632812,-9.7645263671875,-10.405151367188
0.1115,20.464965820312,-5.6405029296875,-14.088745117188
0.112,19.463989257812,-1.6766357421875,-16.971557617188
0.1125,17.301879882812,2.3673095703125,-18.933471679688
0.113,15.219848632812,5.8507080078125,-20.374877929688
0.1135,12.337036132812,8.9337158203125,-20.695190429688
0.114,8.6134033203125,12.337036132812,-20.454956054688
0.1145,4.3292236328125,15.660278320312,-19.694213867188
0.115,-0.5155029296875,18.422973632812,-17.812377929688
0.1155,-4.7196044921875,20.024536132812,-15.410034179688
0.116,-7.6424560546875,20.424926757812,-13.167846679688
0.1165,-10.845581054688,20.745239257812,-10.485229492188
0.117,-14.328979492188,19.984497070312,-6.6014404296875
0.1175,-17.011596679688,18.903442382812,-2.7977294921875
0.118,-19.173706054688,16.861450195312,1.4063720703125
0.1185,-20.655151367188,14.579223632812,5.0899658203125
0.119,-20.695190429688,11.696411132812,8.0128173828125
0.1195,-20.815307617188,8.3731689453125,11.496215820312
0.12,-20.134643554688,4.2891845703125,14.939575195312
0.1205,-18.933471679688,0.2452392578125,17.782348632812
0.121,-16.651245117188,-3.7987060546875,19.463989257812
0.1215,-14.489135742188,-6.8016357421875,20.424926757812
0.122,-11.646362304688,-9.9647216796875,20.825317382812
0.1225,-7.2020263671875,-13.728393554688,20.304809570312
0.123,-3.1180419921875,-16.571166992188,19.223754882812
0.1235,1.7266845703125,-18.933471679688,17.061645507812
0.124,5.5704345703125,-20.374877929688,14.899536132812
0.1245,8.4132080078125,-20.494995117188,12.337036132812
0.125,11.536254882812,-20.735229492188,9.6544189453125
0.1255,15.219848632812,-19.934448242188,5.3702392578125
0.126,17.862426757812,-18.453002929688,1.4063720703125
0.1265,19.664184570312,-16.330932617188,-2.5574951171875
0.127,20.705200195312,-14.008666992188,-5.8807373046875
0.1275,20.825317382812,-10.965698242188,-9.0037841796875
0.128,20.625122070312,-7.0819091796875,-12.767456054688
0.1285,19.824340820312,-3.4383544921875,-15.690307617188
0.129,18.262817382812,0.8458251953125,-18.372924804688
0.1295,15.940551757812,4.7296142578125,-19.974487304688
0.13,13.378051757812,7.6524658203125,-20.374877929688
0.1305,10.535278320312,10.855590820312,-20.815307617188
0.131,5.4903564453125,14.939575195312,-19.934448242188
0.1315,1.3262939453125,17.542114257812,-18.573120117188
0.132,-3.0780029296875,19.383911132812,-16.370971679688
0.1325,-6.6414794921875,20.665161132812,-14.328979492188
0.133,-9.6444091796875,20.625122070312,-11.406127929688
0.1335,-12.887573242188,20.464965820312,-8.3231201171875
0.134,-16.250854492188,19.704223632812,-4.3592529296875
0.1345,-18.853393554688,17.782348632812,0.1651611328125
0.135,-20.374877929688,15.500122070312,3.8887939453125
0.1355,-20.975463867188,12.977661132812,7.0518798828125
0.136,-21.175659179688,9.9346923828125,10.295043945312
0.1365,-20.775268554688,5.2501220703125,14.419067382812
0.137,-19.654174804688,1.6466064453125,17.101684570312
0.1375,-17.812377929688,-2.4373779296875,19.263793945312
0.138,-15.530151367188,-6.1610107421875,20.825317382812
0.1385,-12.447143554688,-9.1639404296875,20.785278320312
0.139,-9.2840576171875,-12.367065429688,21.105590820312
0.1395,-4.2791748046875,-16.290893554688,20.064575195312
0.14,0.6856689453125,-18.933471679688,17.942504882812
0.1405,4.5694580078125,-20.334838867188,15.740356445312
0.141,7.9327392578125,-21.255737304688,13.498168945312
0.1415,11.255981445312,-21.175659179688,10.375122070312
0.142,14.859497070312,-20.575073242188,6.4112548828125
0.1425,17.662231445312,-19.614135742188,2.7276611328125
0.143,20.024536132812,-17.411987304688,-1.8768310546875
0.1435,21.265747070312,-15.009643554688,-5.4803466796875
0.144,21.465942382812,-11.926635742188,-8.6834716796875
0.1445,21.626098632812,-8.9237060546875,-12.046752929688
0.145,20.785278320312,-4.0389404296875,-16.010620117188
0.1455,19.343872070312,0.0450439453125,-18.613159179688
0.146,17.101684570312,3.9288330078125,-20.254760742188
0.1465,14.739379882812,7.5323486328125,-21.616088867188
0.147,11.175903320312,10.895629882812,-21.335815429688
0.1475,7.0518798828125,14.459106445312,-21.135620117188
0.148,2.6075439453125,17.742309570312,-20.014526367188
0.1485,-2.7576904296875,20.184692382812,-17.411987304688
0.149,-6.4012451171875,21.185668945312,-15.089721679688
0.1495,-9.6444091796875,21.626098632812,-12.527221679688
0.15,-12.847534179688,21.626098632812,-9.4842529296875
0.1505,-16.651245117188,20.464965820312,-4.6795654296875
0.151,-19.213745117188,18.903442382812,-0.6756591796875
0.1515,-21.055541992188,16.621215820312,3.4884033203125
0.152,-22.016479492188,14.018676757812,7.0518798828125
0.1525,-21.776245117188,10.415161132812,10.375122070312
0.153,-21.736206054688,6.8917236328125,13.818481445312
0.1535,-20.815307617188,2.4874267578125,17.341918945312
0.154,-18.853393554688,-2.0770263671875,19.904418945312
0.1545,-16.330932617188,-5.7205810546875,21.105590820312
0.155,-13.968627929688,-9.0037841796875,22.066528320312
0.1555,-10.285034179688,-12.286987304688,21.826293945312
0.156,-5.1600341796875,-16.290893554688,20.825317382812
0.1565,-0.9158935546875,-18.893432617188,19.383911132812
0.157,4.0889892578125,-20.975463867188,16.781372070312
0.1575,7.5323486328125,-21.736206054688,14.379028320312
0.158,10.895629882812,-21.696166992188,11.215942382812
0.1585,14.018676757812,-21.616088867188,8.2530517578125
0.159,17.622192382812,-20.334838867188,3.5284423828125
0.1595,20.064575195312,-18.212768554688,-1.1160888671875
0.16,21.385864257812,-15.890502929688,-4.6395263671875
0.1605,22.066528320312,-13.287963867188,-7.9627685546875
0.161,21.746215820312,-9.6444091796875,-11.245971679688
0.1615,21.145629882812,-5.3602294921875,-15.089721679688
0.162,20.184692382812,-1.5164794921875,-17.892456054688
0.1625,18.022583007812,3.0079345703125,-20.214721679688
0.163,15.339965820312,6.5714111328125,-21.135620117188
0.1635,12.457153320312,9.7745361328125,-21.536010742188
0.164,9.0137939453125,13.097778320312,-21.536010742188
0.1645,3.5684814453125,16.941528320312,-20.214721679688
0.165,-1.0360107421875,19.343872070312,-18.252807617188
0.1655,-5.0399169921875,20.865356445312,-16.010620117188
0.166,-8.3631591796875,21.626098632812,-13.608276367188
0.1665,-11.806518554688,21.265747070312,-10.244995117188
0.167,-15.009643554688,20.865356445312,-6.6815185546875
0.1675,-18.052612304688,19.664184570312,-2.5574951171875
0.168,-20.374877929688,17.221801757812,2.2471923828125
0.1685,-21.255737304688,14.739379882812,5.4903564453125
0.169,-21.776245117188,11.976684570312,8.8135986328125
0.1695,-21.616088867188,8.4932861328125,12.136840820312
0.17,-20.775268554688,3.8087158203125,16.020629882812
0.1705,-19.413940429688,0.0050048828125,18.583129882812
0.171,-17.331909179688,-4.1990966796875,20.585083007812
0.1715,-14.769409179688,-7.6024169921875,21.505981445312
0.172,-11.326049804688,-10.925659179688,21.465942382812
0.1725,-7.6424560546875,-14.369018554688,21.385864257812
0.173,-2.5174560546875,-17.852416992188,19.904418945312
0.1735,2.6075439453125,-20.094604492188,17.301879882812
0.174,6.0509033203125,-21.135620117188,15.219848632812
0.1745,9.2940673828125,-21.816284179688,12.737426757812
0.175,12.817504882812,-21.455932617188,9.2139892578125
0.1755,16.300903320312,-20.575073242188,5.0098876953125
0.176,18.983520507812,-19.173706054688,0.9659423828125
0.1765,21.105590820312,-16.731323242188,-3.5985107421875
0.177,21.626098632812,-14.088745117188,-6.7615966796875
0.1775,21.866333007812,-10.845581054688,-10.244995117188
0.178,21.626098632812,-7.2020263671875,-13.688354492188
