wavelength,x,y,z
0.0,-8.238037109375,24.073486328125,-16.245849609375
0.0005,-12.522216796875,23.352783203125,-11.361083984375
0.001,-16.486083984375,23.552978515625,-7.717529296875
0.0015,-19.088623046875,22.431884765625,-4.073974609375
0.002,-21.931396484375,20.590087890625,0.770751953125
0.0025,-23.452880859375,17.747314453125,5.215087890625
0.003,-24.053466796875,13.463134765625,10.099853515625
0.0035,-24.133544921875,9.979736328125,13.783447265625
0.004,-23.332763671875,5.615478515625,17.427001953125
0.0045,-22.211669921875,2.332275390625,19.589111328125
0.005,-19.969482421875,-2.552490234375,22.191650390625
0.0055,-17.166748046875,-7.677490234375,24.513916015625
0.006,-11.921630859375,-12.322021484375,23.873291015625
0.0065,-8.998779296875,-15.845458984375,24.473876953125
0.007,-4.314208984375,-18.648193359375,22.632080078125
0.0075,0.290283203125,-21.170654296875,20.710205078125
0.008,4.534423828125,-22.612060546875,17.987548828125
0.0085,10.179931640625,-24.213623046875,13.943603515625
0.009,13.903564453125,-23.412841796875,9.579345703125
0.0095,17.907470703125,-23.332763671875,5.615478515625
0.01,20.069580078125,-21.731201171875,1.891845703125
0.0105,22.712158203125,-19.649169921875,-2.912841796875
0.011,24.033447265625,-16.606201171875,-7.397216796875
0.0115,24.033447265625,-11.921630859375,-12.081787109375
0.012,24.193603515625,-8.998779296875,-15.284912109375
0.0125,22.912353515625,-4.314208984375,-18.728271484375
0.013,21.430908203125,-0.630615234375,-20.930419921875
0.0135,19.068603515625,3.973876953125,-23.132568359375
0.014,15.505126953125,9.459228515625,-25.054443359375
0.0145,10.540283203125,13.463134765625,-24.053466796875
0.015,7.417236328125,16.986572265625,-24.493896484375
0.0155,2.732666015625,19.388916015625,-22.251708984375
0.016,-2.112060546875,22.071533203125,-20.209716796875
0.0165,-6.236083984375,23.112548828125,-17.246826171875
0.017,-11.841552734375,24.073486328125,-12.762451171875
0.0175,-15.084716796875,23.352783203125,-8.958740234375
0.018,-18.968505859375,22.912353515625,-4.594482421875
0.0185,-20.850341796875,21.110595703125,-0.910888671875
0.019,-23.172607421875,18.748291015625,3.853759765625
0.0195,-24.053466796875,15.064697265625,8.538330078125
0.02,-23.613037109375,10.340087890625,12.862548828125
0.0205,-23.933349609375,7.617431640625,15.985595703125
0.021,-22.291748046875,2.932861328125,19.028564453125
0.0215,-20.690185546875,-1.031005859375,21.430908203125
0.022,-18.087646484375,-5.275146484375,23.072509765625
0.0225,-14.043701171875,-10.920654296875,24.593994140625
0.023,-9.519287109375,-14.283935546875,23.432861328125
0.0235,-5.955810546875,-17.807373046875,23.432861328125
0.024,-1.591552734375,-19.609130859375,20.950439453125
0.0245,3.093017578125,-22.251708984375,18.948486328125
0.025,7.457275390625,-22.852294921875,15.304931640625
0.0255,12.542236328125,-23.372802734375,10.820556640625
0.026,15.625244140625,-22.932373046875,7.537353515625
0.0265,19.148681640625,-21.851318359375,2.972900390625
0.027,20.950439453125,-20.049560546875,-0.750732421875
0.0275,22.792236328125,-17.727294921875,-4.994873046875
0.028,23.633056640625,-13.843505859375,-9.719482421875
0.0285,22.872314453125,-9.479248046875,-13.443115234375
0.029,23.232666015625,-6.756591796875,-16.646240234375
0.0295,21.190673828125,-2.232177734375,-19.128662109375
0.03,19.789306640625,1.931884765625,-21.771240234375
0.0305,16.626220703125,6.176025390625,-22.892333984375
0.031,12.622314453125,11.381103515625,-24.053466796875
0.0315,8.698486328125,14.424072265625,-23.212646484375
0.032,4.614501953125,17.947509765625,-22.652099609375
0.0325,0.610595703125,19.589111328125,-20.369873046875
0.033,-3.913818359375,22.071533203125,-18.528076171875
0.0335,-8.718505859375,22.552001953125,-14.283935546875
0.034,-13.082763671875,22.672119140625,-10.119873046875
0.0345,-16.165771484375,22.752197265625,-7.197021484375
0.035,-19.208740234375,21.110595703125,-2.512451171875
0.0355,-21.210693359375,19.308837890625,1.371337890625
0.036,-22.451904296875,16.426025390625,5.495361328125
0.0365,-23.252685546875,12.422119140625,10.420166015625
0.037,-22.451904296875,8.298095703125,13.783447265625
0.0375,-22.692138671875,5.375244140625,17.026611328125
0.038,-20.570068359375,1.091064453125,19.228759765625
0.0385,-19.208740234375,-3.233154296875,22.111572265625
0.039,-15.084716796875,-7.837646484375,22.592041015625
0.0395,-11.240966796875,-12.562255859375,23.432861328125
0.04,-7.797607421875,-15.405029296875,22.872314453125
0.0405,-3.233154296875,-18.568115234375,21.470947265625
0.041,0.770751953125,-20.209716796875,19.188720703125
0.0415,5.255126953125,-22.291748046875,16.906494140625
0.042,10.139892578125,-22.491943359375,12.422119140625
0.0425,14.063720703125,-22.171630859375,8.258056640625
0.043,17.106689453125,-22.331787109375,5.455322265625
0.0435,19.829345703125,-20.249755859375,0.650634765625
0.044,21.951416015625,-18.407958984375,-3.473388671875
0.0445,22.471923828125,-15.004638671875,-7.437255859375
0.045,23.232666015625,-11.281005859375,-11.961669921875
0.0455,22.311767578125,-7.397216796875,-15.004638671875
0.046,21.951416015625,-3.913818359375,-18.207763671875
0.0465,19.789306640625,0.370361328125,-20.209716796875
0.047,18.067626953125,4.894775390625,-23.052490234375
0.0475,13.463134765625,9.419189453125,-22.932373046875
0.048,9.819580078125,13.583251953125,-23.412841796875
0.0485,6.536376953125,16.345947265625,-22.972412109375
0.049,1.571533203125,19.228759765625,-21.010498046875
0.0495,-2.552490234375,20.990478515625,-18.768310546875
0.05,-7.197021484375,22.552001953125,-15.725341796875
0.0505,-11.721435546875,22.912353515625,-11.681396484375
0.051,-15.324951171875,22.151611328125,-7.397216796875
0.0515,-18.207763671875,21.911376953125,-4.354248046875
0.052,-20.650146484375,19.789306640625,0.290283203125
0.0525,-22.772216796875,17.507080078125,4.734619140625
0.053,-22.451904296875,13.182861328125,8.858642578125
0.0535,-23.252685546875,9.899658203125,12.982666015625
0.054,-22.371826171875,6.095947265625,15.985595703125
0.0545,-21.490966796875,2.252197265625,18.908447265625
0.055,-19.288818359375,-1.951904296875,20.910400390625
0.0555,-16.806396484375,-6.916748046875,23.352783203125
0.056,-12.201904296875,-11.200927734375,23.032470703125
0.0565,-8.398193359375,-15.044677734375,22.992431640625
0.057,-5.195068359375,-17.447021484375,22.271728515625
0.0575,-0.150146484375,-20.129638671875,19.909423828125
0.058,3.973876953125,-21.771240234375,17.667236328125
0.0585,8.938720703125,-22.451904296875,13.463134765625
0.059,12.902587890625,-22.892333984375,10.099853515625
0.0595,16.466064453125,-21.931396484375,5.695556640625
0.06,19.108642578125,-21.130615234375,2.252197265625
0.0605,21.230712890625,-18.928466796875,-2.152099609375
0.061,23.232666015625,-16.486083984375,-6.716552734375
0.0615,22.431884765625,-11.841552734375,-10.600341796875
0.062,23.072509765625,-8.838623046875,-14.364013671875
0.0625,22.071533203125,-5.155029296875,-17.086669921875
0.063,20.750244140625,-0.830810546875,-20.009521484375
0.0635,18.548095703125,3.213134765625,-21.851318359375
0.064,15.104736328125,8.378173828125,-23.572998046875
0.0645,11.140869140625,12.181884765625,-23.412841796875
0.065,6.976806640625,15.865478515625,-22.932373046875
0.0655,3.653564453125,18.067626953125,-21.851318359375
0.066,-1.431396484375,20.710205078125,-19.529052734375
0.0665,-5.715576171875,22.431884765625,-17.126708984375
0.067,-10.560302734375,22.431884765625,-12.241943359375
0.0675,-14.083740234375,22.912353515625,-9.359130859375
0.068,-17.487060546875,21.791259765625,-4.914794921875
0.0685,-19.929443359375,20.630126953125,-1.271240234375
0.069,-21.771240234375,18.187744140625,3.052978515625
0.0695,-23.372802734375,15.024658203125,7.857666015625
0.07,-22.491943359375,10.500244140625,11.581298828125
0.0705,-22.852294921875,7.257080078125,15.304931640625
0.071,-21.731201171875,3.853759765625,17.627197265625
0.0715,-20.209716796875,-0.710693359375,20.630126953125
0.072,-17.767333984375,-4.914794921875,22.351806640625
0.0725,-13.443115234375,-10.239990234375,23.272705078125
0.073,-10.159912109375,-13.523193359375,23.272705078125
0.0735,-5.635498046875,-17.126708984375,22.351806640625
0.074,-2.112060546875,-18.928466796875,20.750244140625
0.0745,2.572509765625,-21.130615234375,18.427978515625
0.075,7.377197265625,-22.772216796875,15.385009765625
0.0755,11.781494140625,-22.171630859375,10.460205078125
0.076,15.304931640625,-22.692138671875,7.537353515625
0.0765,18.307861328125,-21.250732421875,3.173095703125
0.077,20.790283203125,-19.889404296875,-0.790771484375
0.0775,22.151611328125,-17.326904296875,-4.754638671875
0.078,23.352783203125,-13.643310546875,-9.679443359375
0.0785,22.552001953125,-9.679443359375,-12.962646484375
0.079,22.592041015625,-6.115966796875,-16.646240234375
0.0795,21.110595703125,-2.592529296875,-18.648193359375
0.08,19.509033203125,1.971923828125,-21.571044921875
0.0805,16.506103515625,6.496337890625,-23.092529296875
0.081,11.901611328125,11.341064453125,-23.372802734375
0.0815,9.058837890625,14.384033203125,-23.613037109375
0.082,4.134033203125,17.867431640625,-22.091552734375
0.0825,0.290283203125,19.869384765625,-20.329833984375
0.083,-3.953857421875,21.791259765625,-18.087646484375
0.0835,-9.279052734375,23.192626953125,-14.323974609375
0.084,-13.082763671875,22.271728515625,-9.759521484375
0.0845,-16.686279296875,22.712158203125,-6.676513671875
0.085,-19.208740234375,20.910400390625,-2.312255859375
0.0855,-21.771240234375,19.268798828125,1.931884765625
0.086,-22.531982421875,16.145751953125,5.895751953125
0.0865,-23.372802734375,12.061767578125,10.900634765625
0.087,-22.812255859375,8.498291015625,13.943603515625
0.0875,-22.451904296875,4.454345703125,17.667236328125
0.088,-20.730224609375,0.890869140625,19.549072265625
0.0885,-19.048583984375,-3.633544921875,22.271728515625
0.089,-15.204833984375,-8.638427734375,23.392822265625
0.0895,-10.560302734375,-12.962646484375,23.112548828125
0.09,-7.837646484375,-16.005615234375,23.432861328125
0.0905,-2.632568359375,-18.888427734375,21.190673828125
0.091,1.451416015625,-20.970458984375,19.308837890625
0.0915,5.535400390625,-22.291748046875,16.666259765625
0.092,10.940673828125,-23.332763671875,12.462158203125
0.0925,14.384033203125,-22.251708984375,8.057861328125
0.093,18.067626953125,-22.451904296875,4.534423828125
0.0935,20.229736328125,-20.329833984375,0.330322265625
0.094,22.752197265625,-18.528076171875,-4.114013671875
0.0945,22.992431640625,-14.924560546875,-8.037841796875
0.095,23.432861328125,-10.800537109375,-12.682373046875
0.0955,23.032470703125,-7.637451171875,-15.525146484375
0.096,21.911376953125,-2.992919921875,-19.048583984375
0.0965,20.029541015625,0.770751953125,-20.970458984375
0.097,17.947509765625,5.255126953125,-23.332763671875
0.0975,13.783447265625,10.219970703125,-24.173583984375
0.098,9.218994140625,14.103759765625,-23.372802734375
0.0985,6.256103515625,17.306884765625,-23.572998046875
0.099,0.970947265625,19.869384765625,-20.930419921875
0.0995,-3.353271484375,22.071533203125,-19.048583984375
0.1,-7.597412109375,22.752197265625,-15.565185546875
0.1005,-12.642333984375,23.673095703125,-11.521240234375
0.101,-15.885498046875,22.511962890625,-7.277099609375
0.1015,-19.368896484375,22.151611328125,-3.353271484375
0.102,-21.290771484375,19.869384765625,0.850830078125
0.1025,-23.572998046875,17.667236328125,5.415283203125
0.103,-23.332763671875,13.302978515625,9.619384765625
0.1035,-23.452880859375,9.218994140625,13.863525390625
0.104,-23.172607421875,6.216064453125,16.666259765625
0.1045,-21.490966796875,1.331298828125,19.869384765625
0.105,-19.649169921875,-2.632568359375,21.911376953125
0.1055,-16.646240234375,-7.357177734375,23.552978515625
0.106,-12.522216796875,-12.081787109375,24.273681640625
0.1065,-7.917724609375,-15.565185546875,23.112548828125
0.107,-4.634521484375,-18.488037109375,22.752197265625
0.1075,0.570556640625,-20.730224609375,19.989501953125
0.108,4.814697265625,-22.932373046875,18.067626953125
0.1085,9.459228515625,-22.812255859375,13.383056640625
0.109,13.903564453125,-23.532958984375,9.739501953125
0.1095,17.026611328125,-22.531982421875,5.695556640625
0.11,20.269775390625,-21.490966796875,1.371337890625
0.1105,22.071533203125,-19.088623046875,-2.872802734375
0.111,23.953369140625,-16.606201171875,-7.317138671875
0.1115,23.512939453125,-12.161865234375,-11.401123046875
0.112,23.272705078125,-8.157958984375,-15.244873046875
0.1125,22.912353515625,-5.155029296875,-17.927490234375
0.113,20.830322265625,-0.150146484375,-20.850341796875
0.1135,18.948486328125,3.973876953125,-23.092529296875
0.114,14.904541015625,8.898681640625,-23.853271484375
0.1145,11.381103515625,13.102783203125,-24.533935546875
0.115,6.696533203125,16.506103515625,-23.252685546875
0.1155,3.012939453125,19.228759765625,-22.331787109375
0.116,-1.951904296875,21.390869140625,-19.609130859375
0.1165,-6.556396484375,23.673095703125,-17.487060546875
0.117,-11.160888671875,23.032470703125,-12.322021484375
0.1175,-15.124755859375,23.432861328125,-8.918701171875
0.118,-18.087646484375,22.552001953125,-5.074951171875
0.1185,-21.130615234375,20.990478515625,-0.510498046875
0.119,-22.772216796875,18.427978515625,3.853759765625
0.1195,-24.053466796875,15.024658203125,8.538330078125
0.12,-23.693115234375,10.860595703125,12.462158203125
0.1205,-23.212646484375,6.656494140625,16.145751953125
0.121,-22.612060546875,3.613525390625,18.628173828125
0.1215,-20.449951171875,-1.431396484375,21.470947265625
0.122,-18.287841796875,-5.915771484375,23.833251953125
0.1225,-13.322998046875,-10.880615234375,23.793212890625
0.123,-10.239990234375,-14.524169921875,24.393798828125
0.1235,-5.515380859375,-17.767333984375,22.912353515625
0.124,-1.351318359375,-20.249755859375,21.310791015625
0.1245,3.253173828125,-22.051513671875,18.628173828125
0.125,8.378173828125,-24.053466796875,15.665283203125
0.1255,12.582275390625,-23.092529296875,10.620361328125
0.126,16.506103515625,-23.252685546875,6.936767578125
0.1265,19.188720703125,-22.091552734375,3.133056640625
0.127,22.071533203125,-20.249755859375,-1.591552734375
0.1275,23.552978515625,-17.567138671875,-5.835693359375
0.128,24.153564453125,-13.483154296875,-10.600341796875
0.1285,23.953369140625,-10.039794921875,-14.043701171875
0.129,23.032470703125,-5.555419921875,-17.647216796875
0.1295,21.871337890625,-2.152099609375,-19.929443359375
0.13,19.709228515625,2.692626953125,-22.491943359375
0.1305,16.906494140625,7.737548828125,-24.694091796875
0.131,11.701416015625,12.221923828125,-24.053466796875
0.1315,8.818603515625,15.665283203125,-24.493896484375
0.132,3.973876953125,18.628173828125,-22.692138671875
0.1325,-0.590576171875,21.270751953125,-20.890380859375
0.133,-4.834716796875,22.752197265625,-18.247802734375
0.1335,-10.320068359375,24.273681640625,-14.364013671875
0.134,-13.963623046875,23.312744140625,-9.959716796875
0.1345,-17.887451171875,23.192626953125,-5.915771484375
0.135,-20.129638671875,21.631103515625,-2.152099609375
0.1355,-22.772216796875,19.589111328125,2.572509765625
0.136,-23.933349609375,16.385986328125,7.056884765625
0.1365,-23.933349609375,11.661376953125,11.821533203125
0.137,-23.973388671875,8.658447265625,14.944580078125
0.1375,-22.732177734375,3.973876953125,18.427978515625
0.138,-21.330810546875,0.410400390625,20.670166015625
0.1385,-19.128662109375,-4.114013671875,22.872314453125
0.139,-15.565185546875,-9.559326171875,24.754150390625
0.1395,-10.480224609375,-13.563232421875,23.673095703125
0.14,-7.397216796875,-16.926513671875,23.993408203125
0.1405,-2.712646484375,-19.288818359375,21.671142578125
0.141,1.971923828125,-21.931396484375,19.829345703125
0.1415,6.095947265625,-22.972412109375,16.786376953125
0.142,11.661376953125,-23.973388671875,12.302001953125
0.1425,14.864501953125,-23.092529296875,8.418212890625
0.143,18.788330078125,-22.652099609375,4.093994140625
0.1435,20.750244140625,-20.850341796875,0.370361328125
0.144,23.072509765625,-18.728271484375,-4.194091796875
0.1445,24.073486328125,-15.324951171875,-8.798583984375
0.145,23.633056640625,-10.600341796875,-13.122802734375
0.1455,23.753173828125,-7.877685546875,-16.045654296875
0.146,21.991455078125,-2.912841796875,-19.208740234375
0.1465,20.550048828125,0.970947265625,-21.651123046875
0.147,18.067626953125,5.255126953125,-23.372802734375
0.1475,14.063720703125,10.780517578125,-24.894287109375
0.148,9.459228515625,14.183837890625,-23.693115234375
0.1485,5.895751953125,17.787353515625,-23.693115234375
0.149,1.291259765625,19.789306640625,-21.250732421875
0.1495,-3.353271484375,22.471923828125,-19.408935546875
0.15,-7.757568359375,23.192626953125,-15.765380859375
0.1505,-12.922607421875,23.753173828125,-11.401123046875
0.151,-15.885498046875,23.152587890625,-7.917724609375
0.1515,-19.529052734375,22.111572265625,-3.193115234375
0.152,-21.450927734375,20.229736328125,0.610595703125
0.1525,-23.372802734375,17.747314453125,5.014892578125
0.153,-24.053466796875,13.703369140625,9.819580078125
0.1535,-23.332763671875,9.098876953125,13.783447265625
0.154,-23.532958984375,6.376220703125,16.826416015625
0.1545,-21.450927734375,1.571533203125,19.549072265625
0.155,-20.009521484375,-2.552490234375,22.271728515625
0.1555,-16.726318359375,-6.916748046875,23.312744140625
0.156,-12.682373046875,-12.201904296875,24.513916015625
0.1565,-8.438232421875,-15.244873046875,23.312744140625
0.157,-4.354248046875,-18.648193359375,22.632080078125
0.1575,0.050048828125,-20.329833984375,20.069580078125
0.158,4.494384765625,-22.772216796875,18.227783203125
0.1585,9.259033203125,-22.972412109375,13.743408203125
0.159,13.783447265625,-23.172607421875,9.499267578125
0.1595,16.786376953125,-22.892333984375,6.336181640625
0.16,19.989501953125,-21.130615234375,1.371337890625
0.1605,21.911376953125,-19.288818359375,-2.552490234375
0.161,23.272705078125,-16.646240234375,-6.636474609375
0.1615,23.833251953125,-12.602294921875,-11.281005859375
0.162,22.912353515625,-8.278076171875,-14.764404296875
0.1625,22.912353515625,-5.195068359375,-17.847412109375
0.163,20.550048828125,-0.550537109375,-20.169677734375
0.1635,19.188720703125,3.693603515625,-23.012451171875
0.164,15.024658203125,8.218017578125,-23.332763671875
0.1645,11.341064453125,12.902587890625,-24.253662109375
0.165,7.417236328125,15.865478515625,-23.332763671875
0.1655,2.812744140625,19.068603515625,-22.011474609375
0.166,-1.431396484375,20.790283203125,-19.569091796875
0.1665,-5.835693359375,22.992431640625,-17.487060546875
0.167,-10.720458984375,23.032470703125,-12.802490234375
0.1675,-14.684326171875,22.792236328125,-8.678466796875
0.168,-17.607177734375,22.632080078125,-5.675537109375
0.1685,-20.409912109375,20.550048828125,-0.790771484375
0.169,-22.491943359375,18.508056640625,3.453369140625
0.1695,-23.012451171875,14.864501953125,7.577392578125
0.17,-23.693115234375,11.180908203125,12.061767578125
0.1705,-22.692138671875,7.016845703125,15.385009765625
0.171,-22.291748046875,3.693603515625,18.347900390625
0.1715,-20.009521484375,-0.830810546875,20.510009765625
0.172,-18.407958984375,-5.275146484375,23.352783203125
0.1725,-13.523193359375,-9.959716796875,23.152587890625
0.173,-9.919677734375,-14.083740234375,23.673095703125
0.1735,-6.396240234375,-16.806396484375,22.792236328125
0.174,-1.431396484375,-19.689208984375,20.790283203125
0.1745,2.732666015625,-21.330810546875,18.427978515625
0.175,7.417236328125,-22.932373046875,15.425048828125
0.1755,11.901611328125,-23.052490234375,11.220947265625
0.176,15.665283203125,-22.411865234375,6.896728515625
0.1765,18.387939453125,-22.011474609375,3.773681640625
0.177,20.990478515625,-19.849365234375,-1.071044921875
0.1775,23.072509765625,-17.727294921875,-5.355224609375
0.178,22.952392578125,-13.443115234375,-9.479248046875
0.1785,23.633056640625,-10.199951171875,-13.483154296875
0.179,22.552001953125,-6.156005859375,-16.526123046875
0.1795,21.510986328125,-2.272216796875,-19.408935546875
0.18,19.268798828125,2.092041015625,-21.490966796875
0.1805,16.946533203125,7.016845703125,-24.053466796875
